[DEFAULT]

version = pdfgetx3-1.0-r2239-20130415

# input and output specifications
dataformat = Qnm
inputfile = Gold144pure_110Km20007.chi
backgroundfile =
outputtype = gr

# PDF calculation setup
mode = xray
wavelength = 0.1774
composition = Au144 S60 C420 O120 H300
bgscale = 1
rpoly = 0.9
qmaxinst = 29
qmin = 1.33
qmax = 28
rmin = 0
rmax = 20
rstep = 0.01

# End of config --------------------------------------------------------------

#### start data
#S 1
#L r($\AA$)  G($\AA^{-2}$)
0 0
0.01 0.00187542
0.02 0.00358719
0.03 0.00500547
0.04 0.00596338
0.05 0.0064128
0.06 0.00632301
0.07 0.00564718
0.08 0.00447715
0.09 0.00291043
0.1 0.00104826
0.11 -0.000935968
0.12 -0.0028883
0.13 -0.00464277
0.14 -0.00604882
0.15 -0.00701581
0.16 -0.00744016
0.17 -0.00728315
0.18 -0.00659249
0.19 -0.00540065
0.2 -0.0038031
0.21 -0.00195538
0.22 6.44841e-06
0.23 0.00190915
0.24 0.00360504
0.25 0.00496185
0.26 0.00582889
0.27 0.00617765
0.28 0.00597378
0.29 0.0051691
0.3 0.00387129
0.31 0.00214877
0.32 6.38123e-05
0.33 -0.00223748
0.34 -0.00466209
0.35 -0.00712582
0.36 -0.00956345
0.37 -0.0119529
0.38 -0.0143027
0.39 -0.0166688
0.4 -0.0191267
0.41 -0.0217914
0.42 -0.024774
0.43 -0.0281532
0.44 -0.0320254
0.45 -0.0364049
0.46 -0.041217
0.47 -0.0463564
0.48 -0.0515832
0.49 -0.056588
0.5 -0.0609749
0.51 -0.0641929
0.52 -0.0658114
0.53 -0.0652647
0.54 -0.0618097
0.55 -0.055199
0.56 -0.0450038
0.57 -0.0305861
0.58 -0.0122127
0.59 0.0100861
0.6 0.0364654
0.61 0.0660282
0.62 0.098186
0.63 0.132276
0.64 0.167081
0.65 0.201593
0.66 0.234495
0.67 0.264655
0.68 0.291103
0.69 0.312439
0.7 0.328009
0.71 0.337432
0.72 0.339877
0.73 0.335439
0.74 0.324629
0.75 0.307569
0.76 0.285117
0.77 0.258529
0.78 0.228766
0.79 0.197194
0.8 0.165232
0.81 0.134137
0.82 0.105323
0.83 0.079658
0.84 0.0580198
0.85 0.0413684
0.86 0.0295707
0.87 0.0226966
0.88 0.0209027
0.89 0.0231345
0.9 0.028701
0.91 0.0369024
0.92 0.0463565
0.93 0.0560597
0.94 0.064801
0.95 0.0715955
0.96 0.0756781
0.97 0.0760458
0.98 0.0724514
0.99 0.0648143
1 0.0528608
1.01 0.0370906
1.02 0.0181378
1.03 -0.00348795
1.04 -0.026823
1.05 -0.0509128
1.06 -0.074853
1.07 -0.0976494
1.08 -0.118597
1.09 -0.136957
1.1 -0.152104
1.11 -0.163983
1.12 -0.172413
1.13 -0.177346
1.14 -0.179383
1.15 -0.178911
1.16 -0.176419
1.17 -0.172779
1.18 -0.168634
1.19 -0.164737
1.2 -0.161719
1.21 -0.160065
1.22 -0.160407
1.23 -0.162823
1.24 -0.167394
1.25 -0.174281
1.26 -0.183098
1.27 -0.19351
1.28 -0.205208
1.29 -0.217604
1.3 -0.230209
1.31 -0.242515
1.32 -0.254049
1.33 -0.264496
1.34 -0.273506
1.35 -0.280927
1.36 -0.286814
1.37 -0.291181
1.38 -0.29423
1.39 -0.296338
1.4 -0.297827
1.41 -0.299139
1.42 -0.300711
1.43 -0.302945
1.44 -0.306311
1.45 -0.311025
1.46 -0.317321
1.47 -0.325494
1.48 -0.335403
1.49 -0.346993
1.5 -0.360277
1.51 -0.37483
1.52 -0.390381
1.53 -0.406643
1.54 -0.423161
1.55 -0.439589
1.56 -0.455516
1.57 -0.470623
1.58 -0.484669
1.59 -0.497316
1.6 -0.508455
1.61 -0.518047
1.62 -0.525948
1.63 -0.532236
1.64 -0.537068
1.65 -0.540501
1.66 -0.542732
1.67 -0.544032
1.68 -0.544587
1.69 -0.544651
1.7 -0.544499
1.71 -0.54436
1.72 -0.544498
1.73 -0.545107
1.74 -0.546381
1.75 -0.548561
1.76 -0.551702
1.77 -0.555906
1.78 -0.561343
1.79 -0.567903
1.8 -0.575555
1.81 -0.584329
1.82 -0.59397
1.83 -0.604312
1.84 -0.615178
1.85 -0.626254
1.86 -0.637278
1.87 -0.647923
1.88 -0.657901
1.89 -0.666981
1.9 -0.674839
1.91 -0.681329
1.92 -0.686399
1.93 -0.689919
1.94 -0.691976
1.95 -0.692786
1.96 -0.692517
1.97 -0.691511
1.98 -0.69018
1.99 -0.688925
2 -0.688238
2.01 -0.688496
2.02 -0.690093
2.03 -0.693453
2.04 -0.69863
2.05 -0.705733
2.06 -0.714843
2.07 -0.725552
2.08 -0.737532
2.09 -0.750334
2.1 -0.76322
2.11 -0.775542
2.12 -0.786351
2.13 -0.794971
2.14 -0.800743
2.15 -0.80264
2.16 -0.800387
2.17 -0.793732
2.18 -0.782106
2.19 -0.765832
2.2 -0.745324
2.21 -0.720795
2.22 -0.693143
2.23 -0.663341
2.24 -0.632296
2.25 -0.601225
2.26 -0.571204
2.27 -0.54337
2.28 -0.518866
2.29 -0.498299
2.3 -0.482468
2.31 -0.472067
2.32 -0.466894
2.33 -0.467065
2.34 -0.47265
2.35 -0.482741
2.36 -0.496849
2.37 -0.514525
2.38 -0.534654
2.39 -0.556552
2.4 -0.579596
2.41 -0.603026
2.42 -0.626397
2.43 -0.649296
2.44 -0.671541
2.45 -0.693059
2.46 -0.713776
2.47 -0.733785
2.48 -0.753116
2.49 -0.771632
2.5 -0.789102
2.51 -0.805109
2.52 -0.818741
2.53 -0.828818
2.54 -0.834067
2.55 -0.832308
2.56 -0.821052
2.57 -0.798387
2.58 -0.761049
2.59 -0.705426
2.6 -0.629933
2.61 -0.53124
2.62 -0.405416
2.63 -0.252604
2.64 -0.0708788
2.65 0.142718
2.66 0.385201
2.67 0.655892
2.68 0.955331
2.69 1.27763
2.7 1.61933
2.71 1.97727
2.72 2.34417
2.73 2.7146
2.74 3.08177
2.75 3.43903
2.76 3.78055
2.77 4.09803
2.78 4.38662
2.79 4.64229
2.8 4.85777
2.81 5.03074
2.82 5.1606
2.83 5.24308
2.84 5.27854
2.85 5.27012
2.86 5.21728
2.87 5.12255
2.88 4.99186
2.89 4.82766
2.9 4.63387
2.91 4.41725
2.92 4.18177
2.93 3.93172
2.94 3.67283
2.95 3.40889
2.96 3.14385
2.97 2.88116
2.98 2.62338
2.99 2.3737
3 2.13308
3.01 1.90269
3.02 1.68466
3.03 1.47836
3.04 1.28389
3.05 1.1024
3.06 0.93278
3.07 0.77452
3.08 0.628235
3.09 0.492927
3.1 0.367904
3.11 0.253543
3.12 0.149158
3.13 0.0539836
3.14 -0.0317917
3.15 -0.108655
3.16 -0.177516
3.17 -0.238484
3.18 -0.292049
3.19 -0.339319
3.2 -0.380747
3.21 -0.416938
3.22 -0.449074
3.23 -0.477814
3.24 -0.50382
3.25 -0.528066
3.26 -0.551137
3.27 -0.573567
3.28 -0.595859
3.29 -0.618282
3.3 -0.641038
3.31 -0.664111
3.32 -0.687404
3.33 -0.710705
3.34 -0.733703
3.35 -0.756085
3.36 -0.777393
3.37 -0.797321
3.38 -0.815621
3.39 -0.831901
3.4 -0.846087
3.41 -0.858212
3.42 -0.868192
3.43 -0.876248
3.44 -0.882713
3.45 -0.887825
3.46 -0.891994
3.47 -0.895655
3.48 -0.899171
3.49 -0.902933
3.5 -0.90721
3.51 -0.912227
3.52 -0.918158
3.53 -0.924947
3.54 -0.93254
3.55 -0.940803
3.56 -0.949421
3.57 -0.95812
3.58 -0.966515
3.59 -0.974281
3.6 -0.98112
3.61 -0.986593
3.62 -0.990599
3.63 -0.993006
3.64 -0.993572
3.65 -0.992457
3.66 -0.98978
3.67 -0.985575
3.68 -0.98016
3.69 -0.973796
3.7 -0.966675
3.71 -0.959074
3.72 -0.95119
3.73 -0.94314
3.74 -0.934981
3.75 -0.926684
3.76 -0.918118
3.77 -0.909044
3.78 -0.899215
3.79 -0.888263
3.8 -0.875715
3.81 -0.861299
3.82 -0.844597
3.83 -0.825084
3.84 -0.802723
3.85 -0.777295
3.86 -0.748445
3.87 -0.716534
3.88 -0.681695
3.89 -0.643926
3.9 -0.603937
3.91 -0.562171
3.92 -0.519079
3.93 -0.475444
3.94 -0.431869
3.95 -0.389103
3.96 -0.347782
3.97 -0.308439
3.98 -0.271847
3.99 -0.238393
4 -0.208351
4.01 -0.182304
4.02 -0.160402
4.03 -0.142598
4.04 -0.129217
4.05 -0.120253
4.06 -0.115415
4.07 -0.114813
4.08 -0.118397
4.09 -0.125749
4.1 -0.136849
4.11 -0.151674
4.12 -0.169763
4.13 -0.191018
4.14 -0.215438
4.15 -0.242539
4.16 -0.272143
4.17 -0.304203
4.18 -0.338201
4.19 -0.373865
4.2 -0.41101
4.21 -0.449109
4.22 -0.487819
4.23 -0.526761
4.24 -0.56549
4.25 -0.603647
4.26 -0.640757
4.27 -0.676503
4.28 -0.710622
4.29 -0.742687
4.3 -0.772536
4.31 -0.800094
4.32 -0.825084
4.33 -0.847488
4.34 -0.867421
4.35 -0.884773
4.36 -0.899599
4.37 -0.912125
4.38 -0.922338
4.39 -0.930266
4.4 -0.93614
4.41 -0.939945
4.42 -0.941604
4.43 -0.941289
4.44 -0.938944
4.45 -0.934359
4.46 -0.927684
4.47 -0.918852
4.48 -0.907582
4.49 -0.894087
4.5 -0.878365
4.51 -0.860202
4.52 -0.839914
4.53 -0.817621
4.54 -0.793299
4.55 -0.767308
4.56 -0.739883
4.57 -0.711149
4.58 -0.681423
4.59 -0.650927
4.6 -0.61978
4.61 -0.58812
4.62 -0.555999
4.63 -0.523336
4.64 -0.489973
4.65 -0.45571
4.66 -0.420163
4.67 -0.382841
4.68 -0.343376
4.69 -0.301153
4.7 -0.255431
4.71 -0.205916
4.72 -0.152008
4.73 -0.0929162
4.74 -0.0287254
4.75 0.0408494
4.76 0.116367
4.77 0.197164
4.78 0.283002
4.79 0.373919
4.8 0.46871
4.81 0.566638
4.82 0.66694
4.83 0.768241
4.84 0.869436
4.85 0.969108
4.86 1.06597
4.87 1.15889
4.88 1.24617
4.89 1.3268
4.9 1.4
4.91 1.46422
4.92 1.51882
4.93 1.56362
4.94 1.59758
4.95 1.62038
4.96 1.63254
4.97 1.63363
4.98 1.62363
4.99 1.60362
5 1.57371
5.01 1.5341
5.02 1.4862
5.03 1.43051
5.04 1.36737
5.05 1.29829
5.06 1.22396
5.07 1.14489
5.08 1.06242
5.09 0.97735
5.1 0.890358
5.11 0.802528
5.12 0.714615
5.13 0.627527
5.14 0.542032
5.15 0.458803
5.16 0.378848
5.17 0.302705
5.18 0.230864
5.19 0.164291
5.2 0.103343
5.21 0.0482205
5.22 -0.000310293
5.23 -0.0420595
5.24 -0.0772006
5.25 -0.105299
5.26 -0.126343
5.27 -0.140892
5.28 -0.148907
5.29 -0.150559
5.3 -0.146714
5.31 -0.137682
5.32 -0.123806
5.33 -0.106082
5.34 -0.0850326
5.35 -0.061126
5.36 -0.0352704
5.37 -0.00801424
5.38 0.020123
5.39 0.0485124
5.4 0.0767383
5.41 0.104331
5.42 0.131021
5.43 0.156599
5.44 0.180767
5.45 0.203528
5.46 0.224881
5.47 0.244718
5.48 0.263181
5.49 0.280388
5.5 0.296341
5.51 0.311176
5.52 0.325008
5.53 0.337822
5.54 0.349634
5.55 0.360463
5.56 0.370179
5.57 0.378618
5.58 0.385693
5.59 0.391149
5.6 0.394649
5.61 0.396089
5.62 0.395169
5.63 0.391454
5.64 0.38496
5.65 0.375481
5.66 0.3626
5.67 0.346573
5.68 0.3274
5.69 0.304806
5.7 0.279311
5.71 0.25112
5.72 0.220271
5.73 0.187363
5.74 0.152774
5.75 0.116805
5.76 0.0800052
5.77 0.0427853
5.78 0.00554424
5.79 -0.0313218
5.8 -0.0675304
5.81 -0.102764
5.82 -0.136835
5.83 -0.169683
5.84 -0.201177
5.85 -0.231327
5.86 -0.260269
5.87 -0.288052
5.88 -0.3148
5.89 -0.34073
5.9 -0.365961
5.91 -0.39061
5.92 -0.414831
5.93 -0.43868
5.94 -0.462155
5.95 -0.485258
5.96 -0.507911
5.97 -0.529919
5.98 -0.551165
5.99 -0.571461
6 -0.590427
6.01 -0.607944
6.02 -0.623799
6.03 -0.637567
6.04 -0.649206
6.05 -0.658605
6.06 -0.665433
6.07 -0.669773
6.08 -0.671682
6.09 -0.671006
6.1 -0.667927
6.11 -0.662645
6.12 -0.655163
6.13 -0.645683
6.14 -0.634456
6.15 -0.621544
6.16 -0.60708
6.17 -0.591267
6.18 -0.57413
6.19 -0.555682
6.2 -0.536037
6.21 -0.51516
6.22 -0.492955
6.23 -0.469506
6.24 -0.444771
6.25 -0.418635
6.26 -0.391252
6.27 -0.362669
6.28 -0.332881
6.29 -0.30218
6.3 -0.270761
6.31 -0.238852
6.32 -0.206834
6.33 -0.175038
6.34 -0.143915
6.35 -0.113846
6.36 -0.0851764
6.37 -0.0584412
6.38 -0.0339125
6.39 -0.0117928
6.4 0.00749766
6.41 0.0238718
6.42 0.037388
6.43 0.0478777
6.44 0.0554558
6.45 0.0604376
6.46 0.062918
6.47 0.0631562
6.48 0.061596
6.49 0.0584819
6.5 0.0541061
6.51 0.0488573
6.52 0.0429634
6.53 0.0366282
6.54 0.0300499
6.55 0.0233198
6.56 0.0164736
6.57 0.00950707
6.58 0.0023651
6.59 -0.0050861
6.6 -0.0129403
6.61 -0.0213146
6.62 -0.0304045
6.63 -0.0402557
6.64 -0.0509204
6.65 -0.0625024
6.66 -0.0749115
6.67 -0.0880493
6.68 -0.101828
6.69 -0.116016
6.7 -0.13038
6.71 -0.144658
6.72 -0.158543
6.73 -0.171782
6.74 -0.184058
6.75 -0.195094
6.76 -0.204761
6.77 -0.21284
6.78 -0.219174
6.79 -0.223847
6.8 -0.226824
6.81 -0.228113
6.82 -0.227983
6.83 -0.22657
6.84 -0.224015
6.85 -0.220646
6.86 -0.216664
6.87 -0.212257
6.88 -0.20766
6.89 -0.203011
6.9 -0.198434
6.91 -0.193982
6.92 -0.189661
6.93 -0.185437
6.94 -0.18121
6.95 -0.176861
6.96 -0.172209
6.97 -0.167085
6.98 -0.161335
6.99 -0.154729
7 -0.147131
7.01 -0.138466
7.02 -0.128575
7.03 -0.11743
7.04 -0.105103
7.05 -0.0915889
7.06 -0.0769873
7.07 -0.0615062
7.08 -0.0452828
7.09 -0.0285176
7.1 -0.0114628
7.11 0.00568084
7.12 0.0226786
7.13 0.0393503
7.14 0.0555364
7.15 0.0710451
7.16 0.0858493
7.17 0.0999042
7.18 0.113125
7.19 0.125643
7.2 0.137536
7.21 0.14887
7.22 0.159856
7.23 0.170656
7.24 0.181459
7.25 0.192473
7.26 0.203873
7.27 0.215892
7.28 0.228681
7.29 0.242352
7.3 0.2571
7.31 0.272995
7.32 0.290042
7.33 0.308341
7.34 0.32788
7.35 0.348555
7.36 0.370356
7.37 0.393199
7.38 0.416902
7.39 0.441362
7.4 0.466437
7.41 0.491913
7.42 0.517632
7.43 0.543398
7.44 0.569017
7.45 0.59431
7.46 0.619027
7.47 0.643031
7.48 0.666155
7.49 0.688088
7.5 0.708771
7.51 0.728054
7.52 0.745605
7.53 0.761403
7.54 0.775337
7.55 0.787074
7.56 0.796608
7.57 0.803877
7.58 0.808575
7.59 0.810689
7.6 0.81023
7.61 0.806939
7.62 0.8008
7.63 0.791912
7.64 0.780101
7.65 0.765359
7.66 0.747894
7.67 0.727647
7.68 0.704644
7.69 0.679201
7.7 0.651395
7.71 0.621311
7.72 0.589351
7.73 0.555705
7.74 0.520545
7.75 0.484294
7.76 0.44721
7.77 0.409551
7.78 0.371678
7.79 0.33385
7.8 0.296386
7.81 0.259513
7.82 0.223434
7.83 0.188455
7.84 0.154669
7.85 0.122181
7.86 0.0912237
7.87 0.0617953
7.88 0.0338975
7.89 0.00767687
7.9 -0.0169109
7.91 -0.0399366
7.92 -0.0613132
7.93 -0.0810753
7.94 -0.0993236
7.95 -0.115995
7.96 -0.131082
7.97 -0.144689
7.98 -0.156763
7.99 -0.16725
8 -0.17627
8.01 -0.183792
8.02 -0.189747
8.03 -0.194299
8.04 -0.197475
8.05 -0.199236
8.06 -0.199811
8.07 -0.199302
8.08 -0.197746
8.09 -0.195415
8.1 -0.192464
8.11 -0.189033
8.12 -0.18536
8.13 -0.181614
8.14 -0.177979
8.15 -0.17461
8.16 -0.171624
8.17 -0.169163
8.18 -0.167278
8.19 -0.165986
8.2 -0.165332
8.21 -0.165272
8.22 -0.165727
8.23 -0.16665
8.24 -0.167941
8.25 -0.169485
8.26 -0.171198
8.27 -0.172983
8.28 -0.174761
8.29 -0.176478
8.3 -0.178093
8.31 -0.179603
8.32 -0.18102
8.33 -0.182373
8.34 -0.183718
8.35 -0.18511
8.36 -0.186625
8.37 -0.188308
8.38 -0.190201
8.39 -0.192361
8.4 -0.194765
8.41 -0.197391
8.42 -0.200208
8.43 -0.20312
8.44 -0.206035
8.45 -0.208826
8.46 -0.211366
8.47 -0.213546
8.48 -0.215211
8.49 -0.216274
8.5 -0.216692
8.51 -0.216382
8.52 -0.215361
8.53 -0.213709
8.54 -0.211482
8.55 -0.208823
8.56 -0.205919
8.57 -0.202949
8.58 -0.200144
8.59 -0.197701
8.6 -0.195824
8.61 -0.194748
8.62 -0.194554
8.63 -0.195349
8.64 -0.19727
8.65 -0.200202
8.66 -0.20409
8.67 -0.20889
8.68 -0.21433
8.69 -0.220213
8.7 -0.226308
8.71 -0.232316
8.72 -0.237998
8.73 -0.243039
8.74 -0.247244
8.75 -0.250457
8.76 -0.252436
8.77 -0.253157
8.78 -0.252632
8.79 -0.250797
8.8 -0.247786
8.81 -0.243769
8.82 -0.238855
8.83 -0.233261
8.84 -0.227214
8.85 -0.220892
8.86 -0.214494
8.87 -0.208177
8.88 -0.202064
8.89 -0.196253
8.9 -0.190759
8.91 -0.185585
8.92 -0.1807
8.93 -0.176005
8.94 -0.17141
8.95 -0.1668
8.96 -0.162064
8.97 -0.157114
8.98 -0.151838
8.99 -0.146224
9 -0.140264
9.01 -0.133954
9.02 -0.1274
9.03 -0.120699
9.04 -0.113985
9.05 -0.107422
9.06 -0.101156
9.07 -0.0953838
9.08 -0.0902374
9.09 -0.0858046
9.1 -0.0822223
9.11 -0.0795125
9.12 -0.0776251
9.13 -0.0765501
9.14 -0.0761732
9.15 -0.0763153
9.16 -0.0768275
9.17 -0.0775012
9.18 -0.0781283
9.19 -0.0785186
9.2 -0.0784618
9.21 -0.0778507
9.22 -0.076576
9.23 -0.0745252
9.24 -0.0717653
9.25 -0.0683329
9.26 -0.0642707
9.27 -0.0597812
9.28 -0.0550133
9.29 -0.0501465
9.3 -0.0453867
9.31 -0.040894
9.32 -0.0368715
9.33 -0.0334079
9.34 -0.0305644
9.35 -0.0284288
9.36 -0.0269319
9.37 -0.0259856
9.38 -0.0255061
9.39 -0.0253055
9.4 -0.0252012
9.41 -0.0249991
9.42 -0.0244914
9.43 -0.0235289
9.44 -0.0219431
9.45 -0.019618
9.46 -0.0165535
9.47 -0.0127255
9.48 -0.00818142
9.49 -0.00309124
9.5 0.00240293
9.51 0.00809468
9.52 0.0137417
9.53 0.0191254
9.54 0.0239647
9.55 0.0281057
9.56 0.0313956
9.57 0.0336096
9.58 0.0348028
9.59 0.0349837
9.6 0.0341216
9.61 0.0324568
9.62 0.0301657
9.63 0.0274407
9.64 0.0245868
9.65 0.0218535
9.66 0.0195369
9.67 0.0178751
9.68 0.0170367
9.69 0.0172466
9.7 0.0185768
9.71 0.0210049
9.72 0.0245613
9.73 0.029127
9.74 0.0344941
9.75 0.0404988
9.76 0.0468886
9.77 0.0533915
9.78 0.0597649
9.79 0.0657359
9.8 0.071132
9.81 0.0757842
9.82 0.0795181
9.83 0.0823639
9.84 0.0843192
9.85 0.0853803
9.86 0.0857572
9.87 0.0855951
9.88 0.0850525
9.89 0.0843842
9.9 0.0837757
9.91 0.0834515
9.92 0.0835585
9.93 0.0842042
9.94 0.0855255
9.95 0.0875036
9.96 0.0900952
9.97 0.0932667
9.98 0.0968598
9.99 0.100711
10 0.104652
10.01 0.108474
10.02 0.11201
10.03 0.115077
10.04 0.117527
10.05 0.119309
10.06 0.120353
10.07 0.12065
10.08 0.120315
10.09 0.119435
10.1 0.118155
10.11 0.116694
10.12 0.115238
10.13 0.11403
10.14 0.113249
10.15 0.113063
10.16 0.1137
10.17 0.115178
10.18 0.117538
10.19 0.120871
10.2 0.125007
10.21 0.129831
10.22 0.135226
10.23 0.140922
10.24 0.146697
10.25 0.152283
10.26 0.157421
10.27 0.161899
10.28 0.165436
10.29 0.167872
10.3 0.169122
10.31 0.169022
10.32 0.167551
10.33 0.1648
10.34 0.160769
10.35 0.155566
10.36 0.149404
10.37 0.14241
10.38 0.134755
10.39 0.126668
10.4 0.118301
10.41 0.109814
10.42 0.101345
10.43 0.0929828
10.44 0.0848095
10.45 0.076833
10.46 0.0690478
10.47 0.061433
10.48 0.0539079
10.49 0.046403
10.5 0.0388226
10.51 0.0310834
10.52 0.0231154
10.53 0.0148248
10.54 0.00618873
10.55 -0.00280217
10.56 -0.0121692
10.57 -0.0218536
10.58 -0.0317849
10.59 -0.0418894
10.6 -0.0520453
10.61 -0.0621355
10.62 -0.0720242
10.63 -0.0815689
10.64 -0.090669
10.65 -0.0991897
10.66 -0.107011
10.67 -0.114105
10.68 -0.120391
10.69 -0.1258
10.7 -0.130393
10.71 -0.134164
10.72 -0.137095
10.73 -0.139311
10.74 -0.140859
10.75 -0.141754
10.76 -0.142132
10.77 -0.142055
10.78 -0.141539
10.79 -0.140687
10.8 -0.139535
10.81 -0.138086
10.82 -0.136384
10.83 -0.134434
10.84 -0.132211
10.85 -0.129717
10.86 -0.126944
10.87 -0.123851
10.88 -0.120431
10.89 -0.116688
10.9 -0.112597
10.91 -0.108171
10.92 -0.103447
10.93 -0.098441
10.94 -0.0932039
10.95 -0.0878068
10.96 -0.0823121
10.97 -0.0768059
10.98 -0.0713727
10.99 -0.0660993
11 -0.0610925
11.01 -0.0564122
11.02 -0.0521338
11.03 -0.0483592
11.04 -0.0450898
11.05 -0.0423568
11.06 -0.0402292
11.07 -0.038638
11.08 -0.0375594
11.09 -0.0370019
11.1 -0.0368521
11.11 -0.0370429
11.12 -0.0375184
11.13 -0.0381651
11.14 -0.0389004
11.15 -0.0396406
11.16 -0.0403035
11.17 -0.040831
11.18 -0.0411583
11.19 -0.0412547
11.2 -0.0411144
11.21 -0.0407235
11.22 -0.0401053
11.23 -0.0393053
11.24 -0.0383612
11.25 -0.0373339
11.26 -0.0362884
11.27 -0.0352844
11.28 -0.034388
11.29 -0.0336392
11.3 -0.0330764
11.31 -0.0327347
11.32 -0.0325973
11.33 -0.0326528
11.34 -0.0328783
11.35 -0.0332053
11.36 -0.0335752
11.37 -0.0339061
11.38 -0.034119
11.39 -0.0341422
11.4 -0.0338701
11.41 -0.0332633
11.42 -0.0322821
11.43 -0.0308589
11.44 -0.029019
11.45 -0.0267888
11.46 -0.0241798
11.47 -0.0212788
11.48 -0.0181721
11.49 -0.0149444
11.5 -0.0117111
11.51 -0.00857061
11.52 -0.0056286
11.53 -0.00297881
11.54 -0.000668192
11.55 0.00124432
11.56 0.0027331
11.57 0.0038412
11.58 0.00459692
11.59 0.00506383
11.6 0.00535822
11.61 0.00558137
11.62 0.00586773
11.63 0.00633758
11.64 0.00710244
11.65 0.00831194
11.66 0.0100071
11.67 0.0122375
11.68 0.0150924
11.69 0.0184926
11.7 0.0223926
11.71 0.0267525
11.72 0.0314153
11.73 0.0362529
11.74 0.041117
11.75 0.0458388
11.76 0.0502815
11.77 0.0542747
11.78 0.0577116
11.79 0.0605345
11.8 0.0626515
11.81 0.0640664
11.82 0.0648469
11.83 0.0650317
11.84 0.0647373
11.85 0.064126
11.86 0.0633384
11.87 0.0625555
11.88 0.0619384
11.89 0.0616383
11.9 0.0618187
11.91 0.0625359
11.92 0.0638541
11.93 0.0658378
11.94 0.0683929
11.95 0.0714549
11.96 0.0749449
11.97 0.0786669
11.98 0.0824671
11.99 0.0861442
12 0.0895174
12.01 0.0924324
12.02 0.0946747
12.03 0.0961708
12.04 0.0968647
12.05 0.0966512
12.06 0.0955986
12.07 0.0937943
12.08 0.0912967
12.09 0.0882879
12.1 0.0849555
12.11 0.0814771
12.12 0.0780721
12.13 0.0749186
12.14 0.0722018
12.15 0.0700856
12.16 0.0686301
12.17 0.0679179
12.18 0.0679888
12.19 0.0687448
12.2 0.0701245
12.21 0.0720278
12.22 0.074255
12.23 0.0766495
12.24 0.0790159
12.25 0.0811742
12.26 0.0829758
12.27 0.084218
12.28 0.0848525
12.29 0.0848225
12.3 0.0840326
12.31 0.0825775
12.32 0.0805259
12.33 0.0779354
12.34 0.0749851
12.35 0.0718255
12.36 0.0686153
12.37 0.0655317
12.38 0.0627107
12.39 0.0603065
12.4 0.058418
12.41 0.0570818
12.42 0.0563577
12.43 0.0562319
12.44 0.0566225
12.45 0.0574739
12.46 0.0586793
12.47 0.0600949
12.48 0.061603
12.49 0.0630641
12.5 0.064367
12.51 0.0654165
12.52 0.0661116
12.53 0.0664417
12.54 0.0663923
12.55 0.0659473
12.56 0.0651939
12.57 0.0641937
12.58 0.063015
12.59 0.0617716
12.6 0.0605458
12.61 0.0594323
12.62 0.0584914
12.63 0.0577598
12.64 0.0572758
12.65 0.0570116
12.66 0.0569228
12.67 0.0569527
12.68 0.0570009
12.69 0.0569689
12.7 0.0567365
12.71 0.0561862
12.72 0.0552391
12.73 0.0537907
12.74 0.0517738
12.75 0.0491989
12.76 0.0460497
12.77 0.0423554
12.78 0.0382309
12.79 0.0337643
12.8 0.0290825
12.81 0.0243484
12.82 0.0197025
12.83 0.0153226
12.84 0.0113222
12.85 0.0078079
12.86 0.00493229
12.87 0.00268224
12.88 0.00106965
12.89 0.000137473
12.9 -0.000245219
12.91 -0.00017004
12.92 0.00027173
12.93 0.000901869
12.94 0.00157694
12.95 0.00213619
12.96 0.00243338
12.97 0.00236331
12.98 0.00179788
12.99 0.000684919
13 -0.000973913
13.01 -0.00319818
13.02 -0.00592643
