/Users/kirstenmariejensen/Documents/JensenDec14//Au144/Au144SC64_100K-00000.tif:
Q (Inverse Nanometres)
Intensity
       2048
 9.0669677E-02  0.0000000E+00
 2.7200902E-01  0.0000000E+00
 4.5334840E-01  0.0000000E+00
 6.3468772E-01  0.0000000E+00
 8.1602710E-01  0.0000000E+00
 9.9736643E-01  0.0000000E+00
 1.1787058E+00  0.0000000E+00
 1.3600452E+00  0.0000000E+00
 1.5413845E+00  0.0000000E+00
 1.7227238E+00  0.0000000E+00
 1.9040632E+00  0.0000000E+00
 2.0854025E+00  0.0000000E+00
 2.2667420E+00  0.0000000E+00
 2.4480813E+00  2.2221673E+05
 2.6294205E+00  2.3041628E+05
 2.8107600E+00  2.4381422E+05
 2.9920993E+00  2.6220453E+05
 3.1734388E+00  2.8442097E+05
 3.3547781E+00  3.7404231E+05
 3.5361173E+00  6.4821431E+05
 3.7174568E+00  1.0425582E+06
 3.8987961E+00  2.0197480E+06
 4.0801353E+00  2.7025012E+06
 4.2614746E+00  3.6754558E+06
 4.4428144E+00  4.0108430E+06
 4.6241536E+00  4.4961935E+06
 4.8054929E+00  4.4810630E+06
 4.9868321E+00  3.9689800E+06
 5.1681714E+00  3.5141145E+06
 5.3495111E+00  2.9845040E+06
 5.5308504E+00  2.6723868E+06
 5.7121897E+00  2.5972448E+06
 5.8935289E+00  2.6044608E+06
 6.0748682E+00  2.6857318E+06
 6.2562075E+00  2.8252135E+06
 6.4375472E+00  2.9961212E+06
 6.6188865E+00  3.2355540E+06
 6.8002257E+00  3.4663548E+06
 6.9815650E+00  3.7038828E+06
 7.1629043E+00  3.8450505E+06
 7.3442440E+00  3.8696188E+06
 7.5255833E+00  3.7721528E+06
 7.7069225E+00  3.5848792E+06
 7.8882618E+00  3.3865032E+06
 8.0696011E+00  3.2233832E+06
 8.2509403E+00  3.0985388E+06
 8.4322796E+00  2.9938265E+06
 8.6136189E+00  2.8886015E+06
 8.7949591E+00  2.8214612E+06
 8.9762983E+00  2.7625398E+06
 9.1576376E+00  2.7267188E+06
 9.3389769E+00  2.7019142E+06
 9.5203161E+00  2.6786880E+06
 9.7016554E+00  2.6636688E+06
 9.8829947E+00  2.6520548E+06
 1.0064334E+01  2.6412222E+06
 1.0245673E+01  2.6281445E+06
 1.0427012E+01  2.6135028E+06
 1.0608352E+01  2.5941272E+06
 1.0789692E+01  2.5718928E+06
 1.0971031E+01  2.5476790E+06
 1.1152370E+01  2.5245545E+06
 1.1333710E+01  2.5033270E+06
 1.1515049E+01  2.4855745E+06
 1.1696388E+01  2.4727918E+06
 1.1877728E+01  2.4652258E+06
 1.2059067E+01  2.4648148E+06
 1.2240406E+01  2.4702428E+06
 1.2421745E+01  2.4799810E+06
 1.2603086E+01  2.4940678E+06
 1.2784425E+01  2.5111745E+06
 1.2965764E+01  2.5318390E+06
 1.3147103E+01  2.5552402E+06
 1.3328443E+01  2.5800062E+06
 1.3509782E+01  2.6013140E+06
 1.3691121E+01  2.6193082E+06
 1.3872460E+01  2.6296388E+06
 1.4053800E+01  2.6319475E+06
 1.4235139E+01  2.6286828E+06
 1.4416478E+01  2.6194710E+06
 1.4597818E+01  2.6061000E+06
 1.4779158E+01  2.5899640E+06
 1.4960497E+01  2.5690622E+06
 1.5141836E+01  2.5443592E+06
 1.5323175E+01  2.5132675E+06
 1.5504515E+01  2.4787692E+06
 1.5685854E+01  2.4383438E+06
 1.5867193E+01  2.3971360E+06
 1.6048532E+01  2.3563035E+06
 1.6229872E+01  2.3167910E+06
 1.6411211E+01  2.2829592E+06
 1.6592550E+01  2.2525662E+06
 1.6773890E+01  2.2278875E+06
 1.6955229E+01  2.2081488E+06
 1.7136568E+01  2.1945872E+06
 1.7317907E+01  2.1857840E+06
 1.7499249E+01  2.1818625E+06
 1.7680588E+01  2.1821305E+06
 1.7861927E+01  2.1849315E+06
 1.8043266E+01  2.1907882E+06
 1.8224606E+01  2.2007642E+06
 1.8405945E+01  2.2155648E+06
 1.8587284E+01  2.2346875E+06
 1.8768623E+01  2.2574482E+06
 1.8949963E+01  2.2843578E+06
 1.9131302E+01  2.3097015E+06
 1.9312641E+01  2.3386732E+06
 1.9493980E+01  2.3655100E+06
 1.9675320E+01  2.3928848E+06
 1.9856659E+01  2.4208158E+06
 2.0037998E+01  2.4471608E+06
 2.0219337E+01  2.4721995E+06
 2.0400677E+01  2.4959145E+06
 2.0582016E+01  2.5185000E+06
 2.0763355E+01  2.5382505E+06
 2.0944695E+01  2.5581522E+06
 2.1126034E+01  2.5735588E+06
 2.1307375E+01  2.5890685E+06
 2.1488714E+01  2.6031602E+06
 2.1670053E+01  2.6178065E+06
 2.1851393E+01  2.6340972E+06
 2.2032732E+01  2.6542305E+06
 2.2214071E+01  2.6796400E+06
 2.2395411E+01  2.7127438E+06
 2.2576750E+01  2.7575488E+06
 2.2758089E+01  2.8124795E+06
 2.2939428E+01  2.8879418E+06
 2.3120768E+01  2.9745860E+06
 2.3302107E+01  3.0858268E+06
 2.3483446E+01  3.2124475E+06
 2.3664785E+01  3.3634595E+06
 2.3846125E+01  3.5302940E+06
 2.4027464E+01  3.7199595E+06
 2.4208803E+01  3.9232150E+06
 2.4390142E+01  4.1443742E+06
 2.4571482E+01  4.3820285E+06
 2.4752821E+01  4.6199505E+06
 2.4934160E+01  4.8772270E+06
 2.5115499E+01  5.1239205E+06
 2.5296841E+01  5.3785570E+06
 2.5478180E+01  5.6166890E+06
 2.5659519E+01  5.8548145E+06
 2.5840858E+01  6.0707235E+06
 2.6022198E+01  6.2814210E+06
 2.6203537E+01  6.4683845E+06
 2.6384876E+01  6.6351295E+06
 2.6566216E+01  6.7864205E+06
 2.6747555E+01  6.9096395E+06
 2.6928894E+01  7.0130340E+06
 2.7110233E+01  7.0889970E+06
 2.7291573E+01  7.1391410E+06
 2.7472912E+01  7.1612070E+06
 2.7654251E+01  7.1573090E+06
 2.7835590E+01  7.1238675E+06
 2.8016930E+01  7.0577055E+06
 2.8198269E+01  6.9670070E+06
 2.8379608E+01  6.8411635E+06
 2.8560947E+01  6.6915785E+06
 2.8742287E+01  6.5124675E+06
 2.8923626E+01  6.3101135E+06
 2.9104967E+01  6.0870705E+06
 2.9286306E+01  5.8390000E+06
 2.9467646E+01  5.5842565E+06
 2.9648985E+01  5.3060485E+06
 2.9830324E+01  5.0330540E+06
 3.0011663E+01  4.7453155E+06
 3.0193003E+01  4.4687535E+06
 3.0374342E+01  4.1880702E+06
 3.0555681E+01  3.9219065E+06
 3.0737020E+01  3.6638725E+06
 3.0918360E+01  3.4225545E+06
 3.1099699E+01  3.2005265E+06
 3.1281038E+01  2.9968705E+06
 3.1462378E+01  2.8227722E+06
 3.1643717E+01  2.6668045E+06
 3.1825056E+01  2.5415032E+06
 3.2006397E+01  2.4375158E+06
 3.2187737E+01  2.3621468E+06
 3.2369076E+01  2.3057860E+06
 3.2550415E+01  2.2722282E+06
 3.2731754E+01  2.2573020E+06
 3.2913094E+01  2.2592392E+06
 3.3094433E+01  2.2749565E+06
 3.3275772E+01  2.3025735E+06
 3.3457111E+01  2.3384585E+06
 3.3638451E+01  2.3823268E+06
 3.3819790E+01  2.4297678E+06
 3.4001129E+01  2.4807498E+06
 3.4182468E+01  2.5308095E+06
 3.4363808E+01  2.5811905E+06
 3.4545147E+01  2.6278070E+06
 3.4726486E+01  2.6719928E+06
 3.4907825E+01  2.7120432E+06
 3.5089165E+01  2.7456780E+06
 3.5270504E+01  2.7742142E+06
 3.5451843E+01  2.7946468E+06
 3.5633183E+01  2.8079162E+06
 3.5814522E+01  2.8129220E+06
 3.5995861E+01  2.8105298E+06
 3.6177200E+01  2.8010090E+06
 3.6358540E+01  2.7856072E+06
 3.6539879E+01  2.7649642E+06
 3.6721218E+01  2.7382645E+06
 3.6902557E+01  2.7085720E+06
 3.7083897E+01  2.6738412E+06
 3.7265236E+01  2.6368410E+06
 3.7446575E+01  2.5971778E+06
 3.7627914E+01  2.5570195E+06
 3.7809254E+01  2.5165032E+06
 3.7990593E+01  2.4771778E+06
 3.8171932E+01  2.4395058E+06
 3.8353271E+01  2.4043872E+06
 3.8534611E+01  2.3736145E+06
 3.8715954E+01  2.3456198E+06
 3.8897293E+01  2.3232685E+06
 3.9078632E+01  2.3050505E+06
 3.9259972E+01  2.2917292E+06
 3.9441311E+01  2.2822238E+06
 3.9622650E+01  2.2767415E+06
 3.9803989E+01  2.2731730E+06
 3.9985329E+01  2.2732995E+06
 4.0166668E+01  2.2751860E+06
 4.0348007E+01  2.2790990E+06
 4.0529346E+01  2.2855210E+06
 4.0710686E+01  2.2936738E+06
 4.0892025E+01  2.3041502E+06
 4.1073364E+01  2.3163460E+06
 4.1254704E+01  2.3312975E+06
 4.1436043E+01  2.3481165E+06
 4.1617382E+01  2.3684858E+06
 4.1798721E+01  2.3906195E+06
 4.1980061E+01  2.4171665E+06
 4.2161400E+01  2.4473550E+06
 4.2342739E+01  2.4820535E+06
 4.2524078E+01  2.5213552E+06
 4.2705418E+01  2.5664952E+06
 4.2886757E+01  2.6166678E+06
 4.3068096E+01  2.6713570E+06
 4.3249435E+01  2.7303840E+06
 4.3430775E+01  2.7921310E+06
 4.3612114E+01  2.8571770E+06
 4.3793453E+01  2.9232142E+06
 4.3974792E+01  2.9901568E+06
 4.4156132E+01  3.0551032E+06
 4.4337471E+01  3.1181805E+06
 4.4518810E+01  3.1757538E+06
 4.4700150E+01  3.2293618E+06
 4.4881489E+01  3.2751452E+06
 4.5062828E+01  3.3131698E+06
 4.5244167E+01  3.3427620E+06
 4.5425507E+01  3.3624965E+06
 4.5606846E+01  3.3733002E+06
 4.5788185E+01  3.3739782E+06
 4.5969524E+01  3.3662982E+06
 4.6150864E+01  3.3504542E+06
 4.6332203E+01  3.3303680E+06
 4.6513546E+01  3.3037632E+06
 4.6694885E+01  3.2748852E+06
 4.6876225E+01  3.2432320E+06
 4.7057564E+01  3.2110355E+06
 4.7238903E+01  3.1809960E+06
 4.7420242E+01  3.1539470E+06
 4.7601582E+01  3.1312660E+06
 4.7782921E+01  3.1145475E+06
 4.7964260E+01  3.1062302E+06
 4.8145599E+01  3.1035010E+06
 4.8326939E+01  3.1095598E+06
 4.8508278E+01  3.1215642E+06
 4.8689617E+01  3.1408465E+06
 4.8870956E+01  3.1657135E+06
 4.9052296E+01  3.1956985E+06
 4.9233635E+01  3.2279830E+06
 4.9414974E+01  3.2631262E+06
 4.9596313E+01  3.2977160E+06
 4.9777653E+01  3.3309568E+06
 4.9958992E+01  3.3625005E+06
 5.0140331E+01  3.3883088E+06
 5.0321671E+01  3.4093468E+06
 5.0503010E+01  3.4237298E+06
 5.0684349E+01  3.4308345E+06
 5.0865688E+01  3.4286078E+06
 5.1047028E+01  3.4201340E+06
 5.1228367E+01  3.4009690E+06
 5.1409706E+01  3.3754575E+06
 5.1591045E+01  3.3415460E+06
 5.1772385E+01  3.3008478E+06
 5.1953724E+01  3.2533912E+06
 5.2135063E+01  3.2009650E+06
 5.2316402E+01  3.1426998E+06
 5.2497742E+01  3.0812145E+06
 5.2679081E+01  3.0178860E+06
 5.2860420E+01  2.9518552E+06
 5.3041759E+01  2.8876218E+06
 5.3223099E+01  2.8225290E+06
 5.3404438E+01  2.7595625E+06
 5.3585777E+01  2.6991008E+06
 5.3767117E+01  2.6434112E+06
 5.3948456E+01  2.5909935E+06
 5.4129795E+01  2.5443295E+06
 5.4311138E+01  2.5029785E+06
 5.4492477E+01  2.4672988E+06
 5.4673817E+01  2.4380285E+06
 5.4855156E+01  2.4141480E+06
 5.5036495E+01  2.3963862E+06
 5.5217834E+01  2.3836668E+06
 5.5399174E+01  2.3762570E+06
 5.5580513E+01  2.3720100E+06
 5.5761852E+01  2.3725188E+06
 5.5943192E+01  2.3746968E+06
 5.6124531E+01  2.3789675E+06
 5.6305870E+01  2.3842572E+06
 5.6487209E+01  2.3888855E+06
 5.6668549E+01  2.3922895E+06
 5.6849888E+01  2.3950172E+06
 5.7031227E+01  2.3950925E+06
 5.7212566E+01  2.3924230E+06
 5.7393906E+01  2.3873780E+06
 5.7575245E+01  2.3780700E+06
 5.7756584E+01  2.3665632E+06
 5.7937923E+01  2.3517130E+06
 5.8119263E+01  2.3344148E+06
 5.8300602E+01  2.3150825E+06
 5.8481941E+01  2.2950845E+06
 5.8663280E+01  2.2732550E+06
 5.8844620E+01  2.2521132E+06
 5.9025959E+01  2.2312558E+06
 5.9207298E+01  2.2118405E+06
 5.9388638E+01  2.1944430E+06
 5.9569977E+01  2.1795400E+06
 5.9751316E+01  2.1675000E+06
 5.9932655E+01  2.1588048E+06
 6.0113995E+01  2.1536782E+06
 6.0295334E+01  2.1504855E+06
 6.0476673E+01  2.1514332E+06
 6.0658012E+01  2.1549150E+06
 6.0839352E+01  2.1602412E+06
 6.1020691E+01  2.1680782E+06
 6.1202030E+01  2.1776545E+06
 6.1383369E+01  2.1877152E+06
 6.1564709E+01  2.1991820E+06
 6.1746048E+01  2.2101648E+06
 6.1927391E+01  2.2202318E+06
 6.2108730E+01  2.2305775E+06
 6.2290070E+01  2.2392592E+06
 6.2471409E+01  2.2468105E+06
 6.2652748E+01  2.2531578E+06
 6.2834087E+01  2.2584025E+06
 6.3015427E+01  2.2614808E+06
 6.3196766E+01  2.2645110E+06
 6.3378105E+01  2.2657775E+06
 6.3559444E+01  2.2663435E+06
 6.3740784E+01  2.2664498E+06
 6.3922123E+01  2.2656590E+06
 6.4103462E+01  2.2643835E+06
 6.4284798E+01  2.2639108E+06
 6.4466141E+01  2.2632020E+06
 6.4647476E+01  2.2630042E+06
 6.4828819E+01  2.2649625E+06
 6.5010155E+01  2.2671018E+06
 6.5191498E+01  2.2713702E+06
 6.5372833E+01  2.2769652E+06
 6.5554176E+01  2.2843362E+06
 6.5735512E+01  2.2931718E+06
 6.5916855E+01  2.3055228E+06
 6.6098198E+01  2.3180565E+06
 6.6279533E+01  2.3336670E+06
 6.6460876E+01  2.3510508E+06
 6.6642212E+01  2.3694568E+06
 6.6823555E+01  2.3893425E+06
 6.7004890E+01  2.4112978E+06
 6.7186234E+01  2.4330810E+06
 6.7367569E+01  2.4559680E+06
 6.7548912E+01  2.4796148E+06
 6.7730247E+01  2.5013505E+06
 6.7911591E+01  2.5249162E+06
 6.8092926E+01  2.5465008E+06
 6.8274269E+01  2.5677492E+06
 6.8455605E+01  2.5869718E+06
 6.8636948E+01  2.6060288E+06
 6.8818283E+01  2.6207410E+06
 6.8999626E+01  2.6356288E+06
 6.9180962E+01  2.6471860E+06
 6.9362305E+01  2.6558968E+06
 6.9543640E+01  2.6622945E+06
 6.9724983E+01  2.6664258E+06
 6.9906319E+01  2.6658172E+06
 7.0087662E+01  2.6644172E+06
 7.0268997E+01  2.6596292E+06
 7.0450340E+01  2.6509280E+06
 7.0631676E+01  2.6408820E+06
 7.0813019E+01  2.6270578E+06
 7.0994354E+01  2.6106095E+06
 7.1175697E+01  2.5919132E+06
 7.1357033E+01  2.5712468E+06
 7.1538376E+01  2.5468705E+06
 7.1719711E+01  2.5219512E+06
 7.1901054E+01  2.4943718E+06
 7.2082390E+01  2.4658872E+06
 7.2263733E+01  2.4367895E+06
 7.2445068E+01  2.4070582E+06
 7.2626411E+01  2.3757598E+06
 7.2807747E+01  2.3460655E+06
 7.2989090E+01  2.3156742E+06
 7.3170425E+01  2.2861295E+06
 7.3351768E+01  2.2581898E+06
 7.3533112E+01  2.2311215E+06
 7.3714447E+01  2.2052585E+06
 7.3895790E+01  2.1821465E+06
 7.4077126E+01  2.1608575E+06
 7.4258469E+01  2.1410688E+06
 7.4439804E+01  2.1248598E+06
 7.4621147E+01  2.1102658E+06
 7.4802483E+01  2.0982210E+06
 7.4983826E+01  2.0895294E+06
 7.5165161E+01  2.0835390E+06
 7.5346504E+01  2.0792889E+06
 7.5527840E+01  2.0791792E+06
 7.5709183E+01  2.0802399E+06
 7.5890518E+01  2.0832639E+06
 7.6071861E+01  2.0891268E+06
 7.6253197E+01  2.0961119E+06
 7.6434540E+01  2.1042130E+06
 7.6615875E+01  2.1143238E+06
 7.6797218E+01  2.1251772E+06
 7.6978554E+01  2.1349480E+06
 7.7159897E+01  2.1465730E+06
 7.7341232E+01  2.1558060E+06
 7.7522575E+01  2.1646028E+06
 7.7703911E+01  2.1726315E+06
 7.7885254E+01  2.1793450E+06
 7.8066589E+01  2.1828658E+06
 7.8247932E+01  2.1859710E+06
 7.8429268E+01  2.1855492E+06
 7.8610611E+01  2.1832505E+06
 7.8791946E+01  2.1792108E+06
 7.8973289E+01  2.1729140E+06
 7.9154625E+01  2.1639222E+06
 7.9335968E+01  2.1545802E+06
 7.9517303E+01  2.1430488E+06
 7.9698647E+01  2.1293288E+06
 7.9879982E+01  2.1160108E+06
 8.0061325E+01  2.1015300E+06
 8.0242661E+01  2.0869854E+06
 8.0424004E+01  2.0725308E+06
 8.0605339E+01  2.0586150E+06
 8.0786682E+01  2.0443139E+06
 8.0968018E+01  2.0324059E+06
 8.1149361E+01  2.0206209E+06
 8.1330704E+01  2.0100790E+06
 8.1512039E+01  2.0011895E+06
 8.1693382E+01  1.9939055E+06
 8.1874718E+01  1.9863674E+06
 8.2056061E+01  1.9818715E+06
 8.2237396E+01  1.9775371E+06
 8.2418739E+01  1.9741854E+06
 8.2600075E+01  1.9722291E+06
 8.2781418E+01  1.9711888E+06
 8.2962753E+01  1.9702280E+06
 8.3144096E+01  1.9709409E+06
 8.3325432E+01  1.9727705E+06
 8.3506775E+01  1.9734429E+06
 8.3688110E+01  1.9763308E+06
 8.3869453E+01  1.9785791E+06
 8.4050789E+01  1.9810751E+06
 8.4232132E+01  1.9841705E+06
 8.4413467E+01  1.9881768E+06
 8.4594810E+01  1.9903029E+06
 8.4776146E+01  1.9940906E+06
 8.4957489E+01  1.9973255E+06
 8.5138824E+01  2.0006999E+06
 8.5320168E+01  2.0034521E+06
 8.5501503E+01  2.0068665E+06
 8.5682846E+01  2.0081284E+06
 8.5864182E+01  2.0103401E+06
 8.6045525E+01  2.0120090E+06
 8.6226860E+01  2.0124150E+06
 8.6408203E+01  2.0128978E+06
 8.6589539E+01  2.0130820E+06
 8.6770882E+01  2.0123739E+06
 8.6952217E+01  2.0113126E+06
 8.7133560E+01  2.0113104E+06
 8.7314896E+01  2.0090750E+06
 8.7496239E+01  2.0082471E+06
 8.7677574E+01  2.0072151E+06
 8.7858917E+01  2.0060688E+06
 8.8040253E+01  2.0045788E+06
 8.8221596E+01  2.0052385E+06
 8.8402931E+01  2.0040706E+06
 8.8584274E+01  2.0043840E+06
 8.8765610E+01  2.0047649E+06
 8.8946953E+01  2.0059132E+06
 8.9128296E+01  2.0064650E+06
 8.9309631E+01  2.0094668E+06
 8.9490974E+01  2.0110422E+06
 8.9672310E+01  2.0135650E+06
 8.9853653E+01  2.0163022E+06
 9.0034988E+01  2.0187132E+06
 9.0216331E+01  2.0209469E+06
 9.0397667E+01  2.0228429E+06
 9.0579010E+01  2.0251438E+06
 9.0760345E+01  2.0271016E+06
 9.0941689E+01  2.0307808E+06
 9.1123024E+01  2.0320595E+06
 9.1304367E+01  2.0336276E+06
 9.1485703E+01  2.0350092E+06
 9.1667046E+01  2.0370760E+06
 9.1848381E+01  2.0371540E+06
 9.2029724E+01  2.0390396E+06
 9.2211060E+01  2.0389812E+06
 9.2392403E+01  2.0397504E+06
 9.2573738E+01  2.0402149E+06
 9.2755081E+01  2.0401572E+06
 9.2936417E+01  2.0397201E+06
 9.3117760E+01  2.0428772E+06
 9.3299095E+01  2.0441331E+06
 9.3480438E+01  2.0441931E+06
 9.3661774E+01  2.0437911E+06
 9.3843117E+01  2.0445348E+06
 9.4024452E+01  2.0433808E+06
 9.4205795E+01  2.0426159E+06
 9.4387131E+01  2.0418900E+06
 9.4568474E+01  2.0396728E+06
 9.4749809E+01  2.0373646E+06
 9.4931152E+01  2.0350076E+06
 9.5112488E+01  2.0319486E+06
 9.5293831E+01  2.0277346E+06
 9.5475166E+01  2.0245584E+06
 9.5656509E+01  2.0194231E+06
 9.5837845E+01  2.0144964E+06
 9.6019188E+01  2.0090780E+06
 9.6200523E+01  2.0041385E+06
 9.6381866E+01  1.9974569E+06
 9.6563202E+01  1.9926204E+06
 9.6744545E+01  1.9863376E+06
 9.6925888E+01  1.9805622E+06
 9.7107224E+01  1.9740734E+06
 9.7288567E+01  1.9689036E+06
 9.7469902E+01  1.9617851E+06
 9.7651245E+01  1.9560711E+06
 9.7832581E+01  1.9497898E+06
 9.8013924E+01  1.9434596E+06
 9.8195259E+01  1.9364814E+06
 9.8376602E+01  1.9304940E+06
 9.8557938E+01  1.9229784E+06
 9.8739281E+01  1.9158052E+06
 9.8920616E+01  1.9087061E+06
 9.9101959E+01  1.9011660E+06
 9.9283295E+01  1.8930232E+06
 9.9464638E+01  1.8853290E+06
 9.9645973E+01  1.8774016E+06
 9.9827316E+01  1.8686301E+06
 1.0000865E+02  1.8611828E+06
 1.0018999E+02  1.8526728E+06
 1.0037133E+02  1.8448325E+06
 1.0055267E+02  1.8366154E+06
 1.0073401E+02  1.8299515E+06
 1.0091535E+02  1.8218335E+06
 1.0109669E+02  1.8157831E+06
 1.0127803E+02  1.8090154E+06
 1.0145937E+02  1.8037472E+06
 1.0164071E+02  1.7977339E+06
 1.0182204E+02  1.7941124E+06
 1.0200339E+02  1.7893802E+06
 1.0218472E+02  1.7863408E+06
 1.0236607E+02  1.7830355E+06
 1.0254740E+02  1.7810306E+06
 1.0272874E+02  1.7782526E+06
 1.0291008E+02  1.7775870E+06
 1.0309142E+02  1.7760420E+06
 1.0327276E+02  1.7755421E+06
 1.0345410E+02  1.7749692E+06
 1.0363544E+02  1.7753630E+06
 1.0381678E+02  1.7749032E+06
 1.0399812E+02  1.7752638E+06
 1.0417946E+02  1.7756460E+06
 1.0436079E+02  1.7758676E+06
 1.0454214E+02  1.7762138E+06
 1.0472348E+02  1.7765744E+06
 1.0490482E+02  1.7769175E+06
 1.0508616E+02  1.7765548E+06
 1.0526749E+02  1.7772484E+06
 1.0544884E+02  1.7765935E+06
 1.0563017E+02  1.7767770E+06
 1.0581152E+02  1.7760031E+06
 1.0599285E+02  1.7762781E+06
 1.0617419E+02  1.7746600E+06
 1.0635553E+02  1.7747920E+06
 1.0653687E+02  1.7731964E+06
 1.0671821E+02  1.7727480E+06
 1.0689955E+02  1.7707032E+06
 1.0708089E+02  1.7704728E+06
 1.0726223E+02  1.7683219E+06
 1.0744357E+02  1.7677002E+06
 1.0762491E+02  1.7661178E+06
 1.0780624E+02  1.7658166E+06
 1.0798759E+02  1.7643314E+06
 1.0816892E+02  1.7646234E+06
 1.0835027E+02  1.7639326E+06
 1.0853160E+02  1.7645099E+06
 1.0871294E+02  1.7644825E+06
 1.0889428E+02  1.7658554E+06
 1.0907562E+02  1.7660480E+06
 1.0925696E+02  1.7676780E+06
 1.0943830E+02  1.7688585E+06
 1.0961964E+02  1.7707599E+06
 1.0980098E+02  1.7717404E+06
 1.0998232E+02  1.7739864E+06
 1.1016366E+02  1.7755468E+06
 1.1034499E+02  1.7772686E+06
 1.1052634E+02  1.7785099E+06
 1.1070767E+02  1.7797330E+06
 1.1088902E+02  1.7798192E+06
 1.1107035E+02  1.7802762E+06
 1.1125169E+02  1.7805684E+06
 1.1143303E+02  1.7802814E+06
 1.1161437E+02  1.7800645E+06
 1.1179571E+02  1.7799942E+06
 1.1197705E+02  1.7795854E+06
 1.1215839E+02  1.7784899E+06
 1.1233973E+02  1.7782261E+06
 1.1252107E+02  1.7772016E+06
 1.1270241E+02  1.7766098E+06
 1.1288375E+02  1.7754459E+06
 1.1306509E+02  1.7758709E+06
 1.1324643E+02  1.7746389E+06
 1.1342776E+02  1.7749818E+06
 1.1360911E+02  1.7744131E+06
 1.1379044E+02  1.7752142E+06
 1.1397179E+02  1.7741079E+06
 1.1415312E+02  1.7754546E+06
 1.1433447E+02  1.7749871E+06
 1.1451580E+02  1.7757712E+06
 1.1469714E+02  1.7756072E+06
 1.1487848E+02  1.7769818E+06
 1.1505982E+02  1.7762952E+06
 1.1524116E+02  1.7767610E+06
 1.1542250E+02  1.7763899E+06
 1.1560384E+02  1.7767000E+06
 1.1578518E+02  1.7754304E+06
 1.1596651E+02  1.7757078E+06
 1.1614786E+02  1.7740484E+06
 1.1632919E+02  1.7735229E+06
 1.1651054E+02  1.7716635E+06
 1.1669187E+02  1.7706614E+06
 1.1687321E+02  1.7670375E+06
 1.1705455E+02  1.7652241E+06
 1.1723589E+02  1.7620886E+06
 1.1741723E+02  1.7596569E+06
 1.1759857E+02  1.7554386E+06
 1.1777991E+02  1.7527022E+06
 1.1796125E+02  1.7481302E+06
 1.1814259E+02  1.7436750E+06
 1.1832393E+02  1.7385268E+06
 1.1850526E+02  1.7341710E+06
 1.1868661E+02  1.7279966E+06
 1.1886794E+02  1.7229071E+06
 1.1904929E+02  1.7170800E+06
 1.1923062E+02  1.7117685E+06
 1.1941196E+02  1.7050288E+06
 1.1959330E+02  1.7004412E+06
 1.1977464E+02  1.6942170E+06
 1.1995599E+02  1.6885906E+06
 1.2013732E+02  1.6828072E+06
 1.2031866E+02  1.6784426E+06
 1.2050000E+02  1.6729834E+06
 1.2068134E+02  1.6684782E+06
 1.2086268E+02  1.6644364E+06
 1.2104402E+02  1.6606981E+06
 1.2122536E+02  1.6566252E+06
 1.2140670E+02  1.6541530E+06
 1.2158804E+02  1.6512259E+06
 1.2176938E+02  1.6487059E+06
 1.2195071E+02  1.6462551E+06
 1.2213206E+02  1.6449121E+06
 1.2231339E+02  1.6424194E+06
 1.2249474E+02  1.6403594E+06
 1.2267607E+02  1.6387794E+06
 1.2285741E+02  1.6371141E+06
 1.2303875E+02  1.6346246E+06
 1.2322009E+02  1.6328556E+06
 1.2340143E+02  1.6312704E+06
 1.2358277E+02  1.6290408E+06
 1.2376411E+02  1.6268259E+06
 1.2394545E+02  1.6252832E+06
 1.2412679E+02  1.6230388E+06
 1.2430813E+02  1.6206811E+06
 1.2448946E+02  1.6190496E+06
 1.2467081E+02  1.6176410E+06
 1.2485214E+02  1.6154918E+06
 1.2503349E+02  1.6142306E+06
 1.2521482E+02  1.6135930E+06
 1.2539616E+02  1.6124896E+06
 1.2557750E+02  1.6116672E+06
 1.2575884E+02  1.6117220E+06
 1.2594018E+02  1.6117186E+06
 1.2612152E+02  1.6112551E+06
 1.2630286E+02  1.6116861E+06
 1.2648420E+02  1.6122244E+06
 1.2666553E+02  1.6121678E+06
 1.2684688E+02  1.6122700E+06
 1.2702821E+02  1.6131244E+06
 1.2720956E+02  1.6132525E+06
 1.2739089E+02  1.6128249E+06
 1.2757224E+02  1.6129200E+06
 1.2775358E+02  1.6130800E+06
 1.2793491E+02  1.6121258E+06
 1.2811626E+02  1.6113708E+06
 1.2829759E+02  1.6110618E+06
 1.2847893E+02  1.6098001E+06
 1.2866028E+02  1.6079800E+06
 1.2884161E+02  1.6066746E+06
 1.2902295E+02  1.6052288E+06
 1.2920428E+02  1.6030610E+06
 1.2938564E+02  1.6010744E+06
 1.2956697E+02  1.5995590E+06
 1.2974831E+02  1.5975162E+06
 1.2992964E+02  1.5955002E+06
 1.3011099E+02  1.5939732E+06
 1.3029233E+02  1.5925921E+06
 1.3047366E+02  1.5908766E+06
 1.3065500E+02  1.5893284E+06
 1.3083635E+02  1.5884785E+06
 1.3101768E+02  1.5877326E+06
 1.3119902E+02  1.5874878E+06
 1.3138036E+02  1.5873405E+06
 1.3156171E+02  1.5873888E+06
 1.3174304E+02  1.5870181E+06
 1.3192438E+02  1.5869724E+06
 1.3210571E+02  1.5875404E+06
 1.3228706E+02  1.5875729E+06
 1.3246840E+02  1.5875309E+06
 1.3264973E+02  1.5881540E+06
 1.3283107E+02  1.5886868E+06
 1.3301242E+02  1.5886660E+06
 1.3319376E+02  1.5884474E+06
 1.3337509E+02  1.5890194E+06
 1.3355643E+02  1.5888720E+06
 1.3373778E+02  1.5886134E+06
 1.3391911E+02  1.5885895E+06
 1.3410045E+02  1.5884259E+06
 1.3428178E+02  1.5874569E+06
 1.3446313E+02  1.5868065E+06
 1.3464447E+02  1.5860852E+06
 1.3482581E+02  1.5854554E+06
 1.3500714E+02  1.5838021E+06
 1.3518849E+02  1.5830915E+06
 1.3536983E+02  1.5818471E+06
 1.3555116E+02  1.5801048E+06
 1.3573251E+02  1.5780485E+06
 1.3591385E+02  1.5769821E+06
 1.3609518E+02  1.5748096E+06
 1.3627652E+02  1.5732446E+06
 1.3645787E+02  1.5711982E+06
 1.3663921E+02  1.5703039E+06
 1.3682054E+02  1.5676588E+06
 1.3700188E+02  1.5659130E+06
 1.3718323E+02  1.5640771E+06
 1.3736456E+02  1.5630295E+06
 1.3754590E+02  1.5607936E+06
 1.3772723E+02  1.5596398E+06
 1.3790858E+02  1.5580032E+06
 1.3808992E+02  1.5571239E+06
 1.3827126E+02  1.5551626E+06
 1.3845259E+02  1.5546678E+06
 1.3863394E+02  1.5536952E+06
 1.3881528E+02  1.5527828E+06
 1.3899661E+02  1.5517886E+06
 1.3917795E+02  1.5517502E+06
 1.3935930E+02  1.5510841E+06
 1.3954063E+02  1.5505445E+06
 1.3972197E+02  1.5497459E+06
 1.3990331E+02  1.5497826E+06
 1.4008466E+02  1.5492834E+06
 1.4026599E+02  1.5485849E+06
 1.4044733E+02  1.5483268E+06
 1.4062866E+02  1.5479774E+06
 1.4081001E+02  1.5470695E+06
 1.4099135E+02  1.5464071E+06
 1.4117268E+02  1.5457502E+06
 1.4135402E+02  1.5450062E+06
 1.4153537E+02  1.5436821E+06
 1.4171671E+02  1.5424898E+06
 1.4189804E+02  1.5416144E+06
 1.4207938E+02  1.5401868E+06
 1.4226073E+02  1.5385250E+06
 1.4244206E+02  1.5371464E+06
 1.4262340E+02  1.5355275E+06
 1.4280473E+02  1.5335102E+06
 1.4298608E+02  1.5314229E+06
 1.4316742E+02  1.5293781E+06
 1.4334875E+02  1.5273055E+06
 1.4353011E+02  1.5247396E+06
 1.4371144E+02  1.5223558E+06
 1.4389278E+02  1.5201894E+06
 1.4407411E+02  1.5177616E+06
 1.4425546E+02  1.5150250E+06
 1.4443680E+02  1.5127120E+06
 1.4461813E+02  1.5102148E+06
 1.4479947E+02  1.5077924E+06
 1.4498082E+02  1.5049506E+06
 1.4516216E+02  1.5025081E+06
 1.4534349E+02  1.4996995E+06
 1.4552483E+02  1.4974815E+06
 1.4570618E+02  1.4955070E+06
 1.4588751E+02  1.4935691E+06
 1.4606885E+02  1.4914030E+06
 1.4625018E+02  1.4891539E+06
 1.4643153E+02  1.4870681E+06
 1.4661287E+02  1.4852414E+06
 1.4679420E+02  1.4834401E+06
 1.4697554E+02  1.4816378E+06
 1.4715689E+02  1.4799520E+06
 1.4733823E+02  1.4784952E+06
 1.4751956E+02  1.4769456E+06
 1.4770090E+02  1.4753971E+06
 1.4788225E+02  1.4742522E+06
 1.4806358E+02  1.4733556E+06
 1.4824492E+02  1.4722785E+06
 1.4842625E+02  1.4709620E+06
 1.4860760E+02  1.4701349E+06
 1.4878894E+02  1.4693570E+06
 1.4897028E+02  1.4684215E+06
 1.4915161E+02  1.4672020E+06
 1.4933296E+02  1.4665740E+06
 1.4951430E+02  1.4658798E+06
 1.4969563E+02  1.4650800E+06
 1.4987697E+02  1.4641542E+06
 1.5005832E+02  1.4632934E+06
 1.5023965E+02  1.4626474E+06
 1.5042099E+02  1.4621262E+06
 1.5060233E+02  1.4617082E+06
 1.5078368E+02  1.4610135E+06
 1.5096501E+02  1.4605974E+06
 1.5114635E+02  1.4598588E+06
 1.5132770E+02  1.4593609E+06
 1.5150903E+02  1.4588499E+06
 1.5169037E+02  1.4584100E+06
 1.5187170E+02  1.4573930E+06
 1.5205305E+02  1.4570278E+06
 1.5223439E+02  1.4566155E+06
 1.5241573E+02  1.4562408E+06
 1.5259706E+02  1.4554671E+06
 1.5277841E+02  1.4553784E+06
 1.5295975E+02  1.4551950E+06
 1.5314108E+02  1.4550544E+06
 1.5332242E+02  1.4542689E+06
 1.5350377E+02  1.4542494E+06
 1.5368510E+02  1.4540948E+06
 1.5386644E+02  1.4537995E+06
 1.5404778E+02  1.4529618E+06
 1.5422913E+02  1.4531114E+06
 1.5441046E+02  1.4536494E+06
 1.5459180E+02  1.4531881E+06
 1.5477313E+02  1.4529872E+06
 1.5495448E+02  1.4527936E+06
 1.5513582E+02  1.4530968E+06
 1.5531715E+02  1.4523339E+06
 1.5549849E+02  1.4519024E+06
 1.5567984E+02  1.4513479E+06
 1.5586118E+02  1.4513794E+06
 1.5604251E+02  1.4504801E+06
 1.5622385E+02  1.4496272E+06
 1.5640520E+02  1.4488581E+06
 1.5658653E+02  1.4482780E+06
 1.5676787E+02  1.4468939E+06
 1.5694920E+02  1.4457522E+06
 1.5713055E+02  1.4446646E+06
 1.5731189E+02  1.4437584E+06
 1.5749323E+02  1.4420365E+06
 1.5767456E+02  1.4404456E+06
 1.5785591E+02  1.4396331E+06
 1.5803725E+02  1.4385710E+06
 1.5821858E+02  1.4374476E+06
 1.5839992E+02  1.4356701E+06
 1.5858127E+02  1.4352486E+06
 1.5876260E+02  1.4340521E+06
 1.5894394E+02  1.4332896E+06
 1.5912529E+02  1.4315908E+06
 1.5930663E+02  1.4312484E+06
 1.5948796E+02  1.4301314E+06
 1.5966930E+02  1.4292371E+06
 1.5985065E+02  1.4277960E+06
 1.6003198E+02  1.4273286E+06
 1.6021332E+02  1.4262452E+06
 1.6039465E+02  1.4249314E+06
 1.6057600E+02  1.4232211E+06
 1.6075734E+02  1.4225082E+06
 1.6093867E+02  1.4218938E+06
 1.6112001E+02  1.4204710E+06
 1.6130136E+02  1.4194422E+06
 1.6148270E+02  1.4181316E+06
 1.6166403E+02  1.4176216E+06
 1.6184537E+02  1.4159168E+06
 1.6202672E+02  1.4151046E+06
 1.6220805E+02  1.4136319E+06
 1.6238939E+02  1.4131819E+06
 1.6257072E+02  1.4114160E+06
 1.6275208E+02  1.4104086E+06
 1.6293341E+02  1.4094535E+06
 1.6311475E+02  1.4091970E+06
 1.6329608E+02  1.4078501E+06
 1.6347743E+02  1.4067288E+06
 1.6365877E+02  1.4060168E+06
 1.6384010E+02  1.4053109E+06
 1.6402144E+02  1.4045479E+06
 1.6420279E+02  1.4031118E+06
 1.6438412E+02  1.4027769E+06
 1.6456546E+02  1.4017394E+06
 1.6474680E+02  1.4015454E+06
 1.6492815E+02  1.3998502E+06
 1.6510948E+02  1.3991971E+06
 1.6529082E+02  1.3980159E+06
 1.6547215E+02  1.3974719E+06
 1.6565350E+02  1.3956585E+06
 1.6583484E+02  1.3943852E+06
 1.6601617E+02  1.3930872E+06
 1.6619751E+02  1.3919678E+06
 1.6637886E+02  1.3906632E+06
 1.6656020E+02  1.3886796E+06
 1.6674153E+02  1.3876369E+06
 1.6692288E+02  1.3858392E+06
 1.6710422E+02  1.3846436E+06
 1.6728555E+02  1.3824654E+06
 1.6746689E+02  1.3815692E+06
 1.6764824E+02  1.3795901E+06
 1.6782957E+02  1.3787329E+06
 1.6801091E+02  1.3767545E+06
 1.6819225E+02  1.3756290E+06
 1.6837360E+02  1.3743292E+06
 1.6855493E+02  1.3732099E+06
 1.6873627E+02  1.3722878E+06
 1.6891760E+02  1.3708919E+06
 1.6909895E+02  1.3703590E+06
 1.6928029E+02  1.3689788E+06
 1.6946162E+02  1.3684844E+06
 1.6964296E+02  1.3668701E+06
 1.6982431E+02  1.3670340E+06
 1.7000565E+02  1.3658994E+06
 1.7018698E+02  1.3657068E+06
 1.7036832E+02  1.3644736E+06
 1.7054967E+02  1.3643296E+06
 1.7073100E+02  1.3636721E+06
 1.7091234E+02  1.3628444E+06
 1.7109367E+02  1.3622596E+06
 1.7127502E+02  1.3610984E+06
 1.7145636E+02  1.3609405E+06
 1.7163770E+02  1.3596286E+06
 1.7181903E+02  1.3592536E+06
 1.7200038E+02  1.3576205E+06
 1.7218172E+02  1.3576685E+06
 1.7236305E+02  1.3563055E+06
 1.7254439E+02  1.3558195E+06
 1.7272574E+02  1.3544305E+06
 1.7290707E+02  1.3535779E+06
 1.7308841E+02  1.3529866E+06
 1.7326974E+02  1.3518309E+06
 1.7345110E+02  1.3511322E+06
 1.7363243E+02  1.3496208E+06
 1.7381377E+02  1.3493328E+06
 1.7399510E+02  1.3480458E+06
 1.7417645E+02  1.3477878E+06
 1.7435779E+02  1.3464725E+06
 1.7453912E+02  1.3465256E+06
 1.7472047E+02  1.3457584E+06
 1.7490181E+02  1.3455442E+06
 1.7508315E+02  1.3451332E+06
 1.7526448E+02  1.3444532E+06
 1.7544583E+02  1.3444995E+06
 1.7562717E+02  1.3438009E+06
 1.7580850E+02  1.3439665E+06
 1.7598984E+02  1.3428971E+06
 1.7617119E+02  1.3433186E+06
 1.7635252E+02  1.3425796E+06
 1.7653386E+02  1.3429895E+06
 1.7671519E+02  1.3424912E+06
 1.7689655E+02  1.3423152E+06
 1.7707788E+02  1.3422702E+06
 1.7725922E+02  1.3416189E+06
 1.7744055E+02  1.3414954E+06
 1.7762190E+02  1.3404496E+06
 1.7780324E+02  1.3402824E+06
 1.7798457E+02  1.3389622E+06
 1.7816591E+02  1.3390250E+06
 1.7834726E+02  1.3378005E+06
 1.7852859E+02  1.3372690E+06
 1.7870993E+02  1.3360952E+06
 1.7889127E+02  1.3352201E+06
 1.7907262E+02  1.3346454E+06
 1.7925395E+02  1.3333430E+06
 1.7943529E+02  1.3325514E+06
 1.7961662E+02  1.3307698E+06
 1.7979797E+02  1.3304734E+06
 1.7997931E+02  1.3288520E+06
 1.8016064E+02  1.3283602E+06
 1.8034198E+02  1.3270170E+06
 1.8052333E+02  1.3262282E+06
 1.8070467E+02  1.3256798E+06
 1.8088600E+02  1.3245225E+06
 1.8106734E+02  1.3237691E+06
 1.8124869E+02  1.3222041E+06
 1.8143002E+02  1.3220992E+06
 1.8161136E+02  1.3209334E+06
 1.8179269E+02  1.3208280E+06
 1.8197404E+02  1.3195112E+06
 1.8215538E+02  1.3188094E+06
 1.8233672E+02  1.3179694E+06
 1.8251807E+02  1.3167219E+06
 1.8269940E+02  1.3162679E+06
 1.8288074E+02  1.3148136E+06
 1.8306207E+02  1.3146031E+06
 1.8324342E+02  1.3134239E+06
 1.8342476E+02  1.3131634E+06
 1.8360609E+02  1.3118909E+06
 1.8378743E+02  1.3108599E+06
 1.8396878E+02  1.3099686E+06
 1.8415012E+02  1.3091512E+06
 1.8433145E+02  1.3085792E+06
 1.8451279E+02  1.3069181E+06
 1.8469414E+02  1.3063211E+06
 1.8487547E+02  1.3050198E+06
 1.8505681E+02  1.3045075E+06
 1.8523814E+02  1.3033122E+06
 1.8541949E+02  1.3023259E+06
 1.8560083E+02  1.3014305E+06
 1.8578217E+02  1.3006125E+06
 1.8596350E+02  1.3003685E+06
 1.8614485E+02  1.2991199E+06
 1.8632619E+02  1.2988515E+06
 1.8650752E+02  1.2976444E+06
 1.8668886E+02  1.2973554E+06
 1.8687021E+02  1.2970330E+06
 1.8705154E+02  1.2965450E+06
 1.8723288E+02  1.2958441E+06
 1.8741422E+02  1.2947722E+06
 1.8759557E+02  1.2946985E+06
 1.8777690E+02  1.2939610E+06
 1.8795824E+02  1.2936110E+06
 1.8813957E+02  1.2926202E+06
 1.8832092E+02  1.2919628E+06
 1.8850226E+02  1.2909826E+06
 1.8868359E+02  1.2901699E+06
 1.8886493E+02  1.2898188E+06
 1.8904628E+02  1.2886426E+06
 1.8922762E+02  1.2880219E+06
 1.8940895E+02  1.2869712E+06
 1.8959030E+02  1.2865410E+06
 1.8977164E+02  1.2855921E+06
 1.8995297E+02  1.2845798E+06
 1.9013431E+02  1.2834762E+06
 1.9031566E+02  1.2821864E+06
 1.9049699E+02  1.2817310E+06
 1.9067833E+02  1.2807484E+06
 1.9085966E+02  1.2800372E+06
 1.9104102E+02  1.2788138E+06
 1.9122235E+02  1.2780315E+06
 1.9140369E+02  1.2773964E+06
 1.9158502E+02  1.2765430E+06
 1.9176637E+02  1.2759480E+06
 1.9194771E+02  1.2748275E+06
 1.9212904E+02  1.2741361E+06
 1.9231038E+02  1.2732786E+06
 1.9249173E+02  1.2726919E+06
 1.9267307E+02  1.2718652E+06
 1.9285440E+02  1.2710055E+06
 1.9303574E+02  1.2702784E+06
 1.9321709E+02  1.2693766E+06
 1.9339842E+02  1.2688352E+06
 1.9357976E+02  1.2680336E+06
 1.9376109E+02  1.2666079E+06
 1.9394244E+02  1.2646796E+06
 1.9412378E+02  1.2630345E+06
 1.9430511E+02  1.2618080E+06
 1.9448645E+02  1.2604832E+06
 1.9466780E+02  1.2594855E+06
 1.9484914E+02  1.2583170E+06
 1.9503047E+02  1.2570038E+06
 1.9521181E+02  1.2564440E+06
 1.9539316E+02  1.2554921E+06
 1.9557449E+02  1.2545548E+06
 1.9575583E+02  1.2536218E+06
 1.9593716E+02  1.2530301E+06
 1.9611852E+02  1.2532204E+06
 1.9629985E+02  1.2529068E+06
 1.9648119E+02  1.2525820E+06
 1.9666252E+02  1.2521755E+06
 1.9684387E+02  1.2515319E+06
 1.9702521E+02  1.2511175E+06
 1.9720654E+02  1.2507361E+06
 1.9738789E+02  1.2502781E+06
 1.9756923E+02  1.2497266E+06
 1.9775056E+02  1.2491465E+06
 1.9793190E+02  1.2486839E+06
 1.9811325E+02  1.2480376E+06
 1.9829459E+02  1.2477810E+06
 1.9847592E+02  1.2473566E+06
 1.9865726E+02  1.2467392E+06
 1.9883861E+02  1.2462606E+06
 1.9901994E+02  1.2453564E+06
 1.9920128E+02  1.2446636E+06
 1.9938261E+02  1.2441482E+06
 1.9956396E+02  1.2438552E+06
 1.9974530E+02  1.2431128E+06
 1.9992664E+02  1.2424275E+06
 2.0010797E+02  1.2415085E+06
 2.0028932E+02  1.2407390E+06
 2.0047066E+02  1.2404408E+06
 2.0065199E+02  1.2395582E+06
 2.0083333E+02  1.2390915E+06
 2.0101468E+02  1.2384078E+06
 2.0119601E+02  1.2377246E+06
 2.0137735E+02  1.2372394E+06
 2.0155869E+02  1.2363636E+06
 2.0174004E+02  1.2360712E+06
 2.0192137E+02  1.2353552E+06
 2.0210271E+02  1.2345658E+06
 2.0228404E+02  1.2337538E+06
 2.0246539E+02  1.2331741E+06
 2.0264673E+02  1.2328368E+06
 2.0282806E+02  1.2319426E+06
 2.0300940E+02  1.2316141E+06
 2.0319075E+02  1.2305814E+06
 2.0337209E+02  1.2297435E+06
 2.0355342E+02  1.2295612E+06
 2.0373476E+02  1.2287218E+06
 2.0391611E+02  1.2283662E+06
 2.0409744E+02  1.2275504E+06
 2.0427878E+02  1.2267085E+06
 2.0446011E+02  1.2256105E+06
 2.0464146E+02  1.2250815E+06
 2.0482280E+02  1.2249985E+06
 2.0500414E+02  1.2237795E+06
 2.0518549E+02  1.2233916E+06
 2.0536682E+02  1.2224514E+06
 2.0554816E+02  1.2213218E+06
 2.0572949E+02  1.2210661E+06
 2.0591084E+02  1.2202518E+06
 2.0609218E+02  1.2197545E+06
 2.0627351E+02  1.2187946E+06
 2.0645485E+02  1.2182182E+06
 2.0663620E+02  1.2170406E+06
 2.0681754E+02  1.2159456E+06
 2.0699887E+02  1.2158611E+06
 2.0718021E+02  1.2145988E+06
 2.0736156E+02  1.2139249E+06
 2.0754289E+02  1.2131198E+06
 2.0772423E+02  1.2118346E+06
 2.0790556E+02  1.2116052E+06
 2.0808691E+02  1.2106706E+06
 2.0826825E+02  1.2101344E+06
 2.0844958E+02  1.2092656E+06
 2.0863092E+02  1.2083510E+06
 2.0881227E+02  1.2079070E+06
 2.0899361E+02  1.2067498E+06
 2.0917494E+02  1.2067110E+06
 2.0935628E+02  1.2057564E+06
 2.0953763E+02  1.2051822E+06
 2.0971896E+02  1.2047289E+06
 2.0990030E+02  1.2035394E+06
 2.1008163E+02  1.2033540E+06
 2.1026299E+02  1.2020379E+06
 2.1044432E+02  1.2013340E+06
 2.1062566E+02  1.2010812E+06
 2.1080699E+02  1.1998781E+06
 2.1098834E+02  1.1997460E+06
 2.1116968E+02  1.1987390E+06
 2.1135101E+02  1.1979508E+06
 2.1153235E+02  1.1975064E+06
 2.1171370E+02  1.1965230E+06
 2.1189503E+02  1.1964058E+06
 2.1207637E+02  1.1953446E+06
 2.1225771E+02  1.1948179E+06
 2.1243906E+02  1.1943122E+06
 2.1262039E+02  1.1929830E+06
 2.1280173E+02  1.1930166E+06
 2.1298308E+02  1.1919379E+06
 2.1316441E+02  1.1915621E+06
 2.1334575E+02  1.1910990E+06
 2.1352708E+02  1.1900676E+06
 2.1370844E+02  1.1899338E+06
 2.1388977E+02  1.1884976E+06
 2.1407111E+02  1.1879694E+06
 2.1425244E+02  1.1876312E+06
 2.1443379E+02  1.1864119E+06
 2.1461513E+02  1.1862740E+06
 2.1479646E+02  1.1851906E+06
 2.1497780E+02  1.1843850E+06
 2.1515915E+02  1.1839639E+06
 2.1534048E+02  1.1827230E+06
 2.1552182E+02  1.1825030E+06
 2.1570316E+02  1.1816524E+06
 2.1588451E+02  1.1810766E+06
 2.1606584E+02  1.1804420E+06
 2.1624718E+02  1.1795071E+06
 2.1642851E+02  1.1791579E+06
 2.1660986E+02  1.1779741E+06
 2.1679120E+02  1.1773289E+06
 2.1697253E+02  1.1767811E+06
 2.1715387E+02  1.1756424E+06
 2.1733522E+02  1.1757136E+06
 2.1751656E+02  1.1747116E+06
 2.1769789E+02  1.1740718E+06
 2.1787923E+02  1.1738331E+06
 2.1806058E+02  1.1728056E+06
 2.1824191E+02  1.1728075E+06
 2.1842325E+02  1.1721276E+06
 2.1860458E+02  1.1711228E+06
 2.1878593E+02  1.1711400E+06
 2.1896727E+02  1.1700152E+06
 2.1914861E+02  1.1698502E+06
 2.1932994E+02  1.1691565E+06
 2.1951129E+02  1.1678224E+06
 2.1969263E+02  1.1675258E+06
 2.1987396E+02  1.1665435E+06
 2.2005530E+02  1.1660678E+06
 2.2023665E+02  1.1655600E+06
 2.2041798E+02  1.1645290E+06
 2.2059932E+02  1.1642065E+06
 2.2078067E+02  1.1634020E+06
 2.2096201E+02  1.1627298E+06
 2.2114334E+02  1.1623661E+06
 2.2132468E+02  1.1614374E+06
 2.2150603E+02  1.1612204E+06
 2.2168736E+02  1.1606348E+06
 2.2186870E+02  1.1598282E+06
 2.2205003E+02  1.1594280E+06
 2.2223138E+02  1.1582116E+06
 2.2241272E+02  1.1579589E+06
 2.2259406E+02  1.1572999E+06
 2.2277539E+02  1.1563361E+06
 2.2295674E+02  1.1559355E+06
 2.2313808E+02  1.1550205E+06
 2.2331941E+02  1.1543852E+06
 2.2350075E+02  1.1538350E+06
 2.2368210E+02  1.1527090E+06
 2.2386343E+02  1.1523242E+06
 2.2404477E+02  1.1518000E+06
 2.2422610E+02  1.1510455E+06
 2.2440746E+02  1.1507416E+06
 2.2458879E+02  1.1497415E+06
 2.2477013E+02  1.1494591E+06
 2.2495146E+02  1.1489229E+06
 2.2513281E+02  1.1478768E+06
 2.2531415E+02  1.1476186E+06
 2.2549548E+02  1.1466602E+06
 2.2567682E+02  1.1459876E+06
 2.2585817E+02  1.1455086E+06
 2.2603951E+02  1.1445965E+06
 2.2622084E+02  1.1442839E+06
 2.2640218E+02  1.1435098E+06
 2.2658353E+02  1.1422931E+06
 2.2676486E+02  1.1421455E+06
 2.2694620E+02  1.1411404E+06
 2.2712753E+02  1.1405494E+06
 2.2730888E+02  1.1399589E+06
 2.2749022E+02  1.1390361E+06
 2.2767155E+02  1.1387926E+06
 2.2785289E+02  1.1380270E+06
 2.2803424E+02  1.1373035E+06
 2.2821558E+02  1.1368926E+06
 2.2839691E+02  1.1359461E+06
 2.2857826E+02  1.1353472E+06
 2.2875960E+02  1.1344501E+06
 2.2894093E+02  1.1336194E+06
 2.2912227E+02  1.1327039E+06
 2.2930362E+02  1.1321355E+06
 2.2948495E+02  1.1313664E+06
 2.2966629E+02  1.1307170E+06
 2.2984763E+02  1.1300298E+06
 2.3002898E+02  1.1293511E+06
 2.3021031E+02  1.1289504E+06
 2.3039165E+02  1.1280412E+06
 2.3057298E+02  1.1274192E+06
 2.3075433E+02  1.1267560E+06
 2.3093567E+02  1.1257218E+06
 2.3111700E+02  1.1254189E+06
 2.3129834E+02  1.1246805E+06
 2.3147969E+02  1.1241259E+06
 2.3166103E+02  1.1234772E+06
 2.3184236E+02  1.1227664E+06
 2.3202370E+02  1.1222429E+06
 2.3220505E+02  1.1216324E+06
 2.3238638E+02  1.1210761E+06
 2.3256772E+02  1.1203379E+06
 2.3274905E+02  1.1195722E+06
 2.3293040E+02  1.1188161E+06
 2.3311174E+02  1.1182652E+06
 2.3329308E+02  1.1176348E+06
 2.3347441E+02  1.1172508E+06
 2.3365576E+02  1.1165662E+06
 2.3383710E+02  1.1158321E+06
 2.3401843E+02  1.1153455E+06
 2.3419977E+02  1.1145951E+06
 2.3438112E+02  1.1141661E+06
 2.3456245E+02  1.1132674E+06
 2.3474379E+02  1.1127339E+06
 2.3492513E+02  1.1120295E+06
 2.3510648E+02  1.1112838E+06
 2.3528781E+02  1.1106560E+06
 2.3546915E+02  1.1101756E+06
 2.3565048E+02  1.1098149E+06
 2.3583183E+02  1.1091010E+06
 2.3601317E+02  1.1087980E+06
 2.3619450E+02  1.1080070E+06
 2.3637585E+02  1.1078832E+06
 2.3655719E+02  1.1069259E+06
 2.3673853E+02  1.1060305E+06
 2.3691986E+02  1.1055082E+06
 2.3710121E+02  1.1044680E+06
 2.3728255E+02  1.1039666E+06
 2.3746388E+02  1.1031754E+06
 2.3764522E+02  1.1022160E+06
 2.3782657E+02  1.1010838E+06
 2.3800790E+02  1.1009545E+06
 2.3818924E+02  1.0997879E+06
 2.3837057E+02  1.0991898E+06
 2.3855193E+02  1.0985655E+06
 2.3873326E+02  1.0976639E+06
 2.3891460E+02  1.0972921E+06
 2.3909593E+02  1.0963708E+06
 2.3927728E+02  1.0956962E+06
 2.3945862E+02  1.0951795E+06
 2.3963995E+02  1.0944586E+06
 2.3982129E+02  1.0935558E+06
 2.4000264E+02  1.0934185E+06
 2.4018398E+02  1.0924180E+06
 2.4036531E+02  1.0917032E+06
 2.4054665E+02  1.0913269E+06
 2.4072800E+02  1.0902732E+06
 2.4090933E+02  1.0896098E+06
 2.4109067E+02  1.0894388E+06
 2.4127200E+02  1.0886024E+06
 2.4145335E+02  1.0879131E+06
 2.4163469E+02  1.0874595E+06
 2.4181602E+02  1.0863941E+06
 2.4199736E+02  1.0857650E+06
 2.4217871E+02  1.0855751E+06
 2.4236005E+02  1.0843908E+06
 2.4254138E+02  1.0842481E+06
 2.4272272E+02  1.0836140E+06
 2.4290407E+02  1.0825871E+06
 2.4308540E+02  1.0821198E+06
 2.4326674E+02  1.0817481E+06
 2.4344807E+02  1.0806771E+06
 2.4362943E+02  1.0805752E+06
 2.4381076E+02  1.0797845E+06
 2.4399210E+02  1.0786628E+06
 2.4417345E+02  1.0787575E+06
 2.4435478E+02  1.0779434E+06
 2.4453612E+02  1.0769694E+06
 2.4471745E+02  1.0765324E+06
 2.4489880E+02  1.0759085E+06
 2.4508014E+02  1.0749005E+06
 2.4526147E+02  1.0749824E+06
 2.4544281E+02  1.0738611E+06
 2.4562416E+02  1.0732064E+06
 2.4580550E+02  1.0727834E+06
 2.4598683E+02  1.0721119E+06
 2.4616817E+02  1.0710460E+06
 2.4634952E+02  1.0710389E+06
 2.4653085E+02  1.0699306E+06
 2.4671219E+02  1.0693121E+06
 2.4689352E+02  1.0688366E+06
 2.4707487E+02  1.0680625E+06
 2.4725621E+02  1.0672406E+06
 2.4743755E+02  1.0671039E+06
 2.4761888E+02  1.0660782E+06
 2.4780023E+02  1.0656266E+06
 2.4798157E+02  1.0653366E+06
 2.4816290E+02  1.0644718E+06
 2.4834424E+02  1.0635696E+06
 2.4852559E+02  1.0634411E+06
 2.4870692E+02  1.0626212E+06
 2.4888826E+02  1.0618109E+06
 2.4906960E+02  1.0614690E+06
 2.4925095E+02  1.0606682E+06
 2.4943228E+02  1.0596848E+06
 2.4961362E+02  1.0593256E+06
 2.4979495E+02  1.0584660E+06
 2.4997630E+02  1.0577682E+06
 2.5015764E+02  1.0571818E+06
 2.5033897E+02  1.0564875E+06
 2.5052031E+02  1.0557296E+06
 2.5070166E+02  1.0553701E+06
 2.5088300E+02  1.0546182E+06
 2.5106433E+02  1.0536335E+06
 2.5124567E+02  1.0532091E+06
 2.5142702E+02  1.0526854E+06
 2.5160835E+02  1.0516546E+06
 2.5178969E+02  1.0514555E+06
 2.5197104E+02  1.0507795E+06
 2.5215237E+02  1.0498968E+06
 2.5233371E+02  1.0496706E+06
 2.5251505E+02  1.0488625E+06
 2.5269640E+02  1.0477142E+06
 2.5287773E+02  1.0471630E+06
 2.5305907E+02  1.0466806E+06
 2.5324040E+02  1.0456661E+06
 2.5342175E+02  1.0454346E+06
 2.5360309E+02  1.0446586E+06
 2.5378442E+02  1.0435501E+06
 2.5396576E+02  1.0433025E+06
 2.5414711E+02  1.0427814E+06
 2.5432845E+02  1.0418122E+06
 2.5450978E+02  1.0413317E+06
 2.5469112E+02  1.0409227E+06
 2.5487247E+02  1.0397152E+06
 2.5505380E+02  1.0392552E+06
 2.5523514E+02  1.0385135E+06
 2.5541647E+02  1.0380658E+06
 2.5559782E+02  1.0369146E+06
 2.5577916E+02  1.0366448E+06
 2.5596049E+02  1.0356962E+06
 2.5614185E+02  1.0348681E+06
 2.5632318E+02  1.0341132E+06
 2.5650452E+02  1.0337092E+06
 2.5668585E+02  1.0329946E+06
 2.5686719E+02  1.0325807E+06
 2.5704852E+02  1.0322498E+06
 2.5722986E+02  1.0313949E+06
 2.5741122E+02  1.0311899E+06
 2.5759256E+02  1.0305428E+06
 2.5777390E+02  1.0298425E+06
 2.5795523E+02  1.0292683E+06
 2.5813657E+02  1.0285899E+06
 2.5831790E+02  1.0278623E+06
 2.5849924E+02  1.0271241E+06
 2.5868057E+02  1.0264596E+06
 2.5886194E+02  1.0258226E+06
 2.5904327E+02  1.0250994E+06
 2.5922461E+02  1.0244701E+06
 2.5940594E+02  1.0237425E+06
 2.5958728E+02  1.0230807E+06
 2.5976862E+02  1.0222567E+06
 2.5994995E+02  1.0217669E+06
 2.6013132E+02  1.0212160E+06
 2.6031265E+02  1.0204557E+06
 2.6049399E+02  1.0199156E+06
 2.6067532E+02  1.0188947E+06
 2.6085666E+02  1.0186662E+06
 2.6103799E+02  1.0176932E+06
 2.6121933E+02  1.0170462E+06
 2.6140067E+02  1.0163174E+06
 2.6158203E+02  1.0155023E+06
 2.6176337E+02  1.0149784E+06
 2.6194470E+02  1.0139741E+06
 2.6212604E+02  1.0134929E+06
 2.6230737E+02  1.0124714E+06
 2.6248871E+02  1.0123041E+06
 2.6267004E+02  1.0120344E+06
 2.6285138E+02  1.0110367E+06
 2.6303275E+02  1.0104565E+06
 2.6321408E+02  1.0099613E+06
 2.6339542E+02  1.0092871E+06
 2.6357675E+02  1.0084587E+06
 2.6375809E+02  1.0079813E+06
 2.6393942E+02  1.0074269E+06
 2.6412076E+02  1.0065001E+06
 2.6430209E+02  1.0057307E+06
 2.6448346E+02  1.0054813E+06
 2.6466479E+02  1.0046960E+06
 2.6484613E+02  1.0037254E+06
 2.6502747E+02  1.0034572E+06
 2.6520880E+02  1.0028082E+06
 2.6539014E+02  1.0019082E+06
 2.6557147E+02  1.0012269E+06
 2.6575281E+02  1.0009449E+06
 2.6593417E+02  1.0000414E+06
 2.6611551E+02  9.9898488E+05
 2.6629684E+02  9.9884956E+05
 2.6647818E+02  9.9813162E+05
 2.6665952E+02  9.9718744E+05
 2.6684085E+02  9.9662119E+05
 2.6702219E+02  9.9616625E+05
 2.6720355E+02  9.9533731E+05
 2.6738489E+02  9.9444912E+05
 2.6756622E+02  9.9398994E+05
 2.6774756E+02  9.9337919E+05
 2.6792889E+02  9.9267888E+05
 2.6811023E+02  9.9228762E+05
 2.6829156E+02  9.9185275E+05
 2.6847290E+02  9.9081412E+05
 2.6865427E+02  9.9011319E+05
 2.6883560E+02  9.8955050E+05
 2.6901694E+02  9.8892556E+05
 2.6919827E+02  9.8785556E+05
 2.6937961E+02  9.8704925E+05
 2.6956094E+02  9.8682038E+05
 2.6974228E+02  9.8576262E+05
 2.6992361E+02  9.8510812E+05
 2.7010498E+02  9.8475850E+05
 2.7028632E+02  9.8418425E+05
 2.7046765E+02  9.8344638E+05
 2.7064899E+02  9.8258725E+05
 2.7083032E+02  9.8232919E+05
 2.7101166E+02  9.8165781E+05
 2.7119299E+02  9.8045244E+05
 2.7137433E+02  9.8033512E+05
 2.7155569E+02  9.7963019E+05
 2.7173703E+02  9.7844206E+05
 2.7191837E+02  9.7777012E+05
 2.7209970E+02  9.7727344E+05
 2.7228104E+02  9.7665044E+05
 2.7246237E+02  9.7525075E+05
 2.7264371E+02  9.7456631E+05
 2.7282504E+02  9.7423962E+05
 2.7300641E+02  9.7327719E+05
 2.7318774E+02  9.7202181E+05
 2.7336908E+02  9.7184900E+05
 2.7355042E+02  9.7106494E+05
 2.7373175E+02  9.7032594E+05
 2.7391309E+02  9.6973250E+05
 2.7409442E+02  9.6956938E+05
 2.7427576E+02  9.6907950E+05
 2.7445712E+02  9.6814612E+05
 2.7463846E+02  9.6735356E+05
 2.7481979E+02  9.6697988E+05
 2.7500113E+02  9.6638831E+05
 2.7518246E+02  9.6533019E+05
 2.7536380E+02  9.6460100E+05
 2.7554514E+02  9.6400081E+05
 2.7572650E+02  9.6359350E+05
 2.7590784E+02  9.6248269E+05
 2.7608917E+02  9.6214275E+05
 2.7627051E+02  9.6175756E+05
 2.7645184E+02  9.6083025E+05
 2.7663318E+02  9.5958269E+05
 2.7681451E+02  9.5942169E+05
 2.7699585E+02  9.5858769E+05
 2.7717722E+02  9.5797600E+05
 2.7735855E+02  9.5723812E+05
 2.7753989E+02  9.5659381E+05
 2.7772122E+02  9.5599431E+05
 2.7790256E+02  9.5541831E+05
 2.7808389E+02  9.5445169E+05
 2.7826523E+02  9.5391400E+05
 2.7844656E+02  9.5338194E+05
 2.7862793E+02  9.5255600E+05
 2.7880927E+02  9.5188356E+05
 2.7899060E+02  9.5136981E+05
 2.7917194E+02  9.5060969E+05
 2.7935327E+02  9.4991469E+05
 2.7953461E+02  9.4911506E+05
 2.7971594E+02  9.4843988E+05
 2.7989728E+02  9.4786444E+05
 2.8007864E+02  9.4727738E+05
 2.8025998E+02  9.4657150E+05
 2.8044131E+02  9.4594088E+05
 2.8062265E+02  9.4527681E+05
 2.8080399E+02  9.4450350E+05
 2.8098532E+02  9.4380250E+05
 2.8116666E+02  9.4312794E+05
 2.8134799E+02  9.4237731E+05
 2.8152936E+02  9.4181062E+05
 2.8171069E+02  9.4109550E+05
 2.8189203E+02  9.4036644E+05
 2.8207336E+02  9.3968269E+05
 2.8225470E+02  9.3916869E+05
 2.8243604E+02  9.3864931E+05
 2.8261737E+02  9.3769525E+05
 2.8279874E+02  9.3723000E+05
 2.8298007E+02  9.3633731E+05
 2.8316141E+02  9.3576612E+05
 2.8334274E+02  9.3492819E+05
 2.8352408E+02  9.3412812E+05
 2.8370541E+02  9.3330444E+05
 2.8388675E+02  9.3302594E+05
 2.8406808E+02  9.3227025E+05
 2.8424945E+02  9.3149381E+05
 2.8443079E+02  9.3055950E+05
 2.8461212E+02  9.3028425E+05
 2.8479346E+02  9.2946925E+05
 2.8497479E+02  9.2864700E+05
 2.8515613E+02  9.2792950E+05
 2.8533746E+02  9.2725788E+05
 2.8551880E+02  9.2674275E+05
 2.8570016E+02  9.2580119E+05
 2.8588150E+02  9.2525100E+05
 2.8606284E+02  9.2440656E+05
 2.8624417E+02  9.2411875E+05
 2.8642551E+02  9.2336025E+05
 2.8660684E+02  9.2255481E+05
 2.8678818E+02  9.2181588E+05
 2.8696951E+02  9.2146769E+05
 2.8715088E+02  9.2086669E+05
 2.8733221E+02  9.1984738E+05
 2.8751355E+02  9.1910012E+05
 2.8769489E+02  9.1870150E+05
 2.8787622E+02  9.1818494E+05
 2.8805756E+02  9.1734775E+05
 2.8823889E+02  9.1648731E+05
 2.8842023E+02  9.1601612E+05
 2.8860159E+02  9.1576812E+05
 2.8878293E+02  9.1529462E+05
 2.8896426E+02  9.1436644E+05
 2.8914560E+02  9.1361675E+05
 2.8932693E+02  9.1296494E+05
 2.8950827E+02  9.1246906E+05
 2.8968961E+02  9.1186175E+05
 2.8987094E+02  9.1106525E+05
 2.9005231E+02  9.1017212E+05
 2.9023364E+02  9.0951738E+05
 2.9041498E+02  9.0930244E+05
 2.9059631E+02  9.0844269E+05
 2.9077765E+02  9.0739575E+05
 2.9095898E+02  9.0657719E+05
 2.9114032E+02  9.0563212E+05
 2.9132169E+02  9.0506438E+05
 2.9150302E+02  9.0423112E+05
 2.9168436E+02  9.0344912E+05
 2.9186569E+02  9.0303256E+05
 2.9204703E+02  9.0250138E+05
 2.9222836E+02  9.0159100E+05
 2.9240970E+02  9.0044962E+05
 2.9259103E+02  8.9958831E+05
 2.9277240E+02  8.9914044E+05
 2.9295374E+02  8.9829250E+05
 2.9313507E+02  8.9749125E+05
 2.9331641E+02  8.9623425E+05
 2.9349774E+02  8.9576462E+05
 2.9367908E+02  8.9493331E+05
 2.9386041E+02  8.9401619E+05
 2.9404175E+02  8.9299356E+05
 2.9422311E+02  8.9185906E+05
 2.9440445E+02  8.9097431E+05
 2.9458578E+02  8.9013056E+05
 2.9476712E+02  8.8928244E+05
 2.9494846E+02  8.8874800E+05
 2.9512979E+02  8.8746275E+05
 2.9531113E+02  8.8697244E+05
 2.9549246E+02  8.8591206E+05
 2.9567383E+02  8.8517888E+05
 2.9585516E+02  8.8435988E+05
 2.9603650E+02  8.8335319E+05
 2.9621783E+02  8.8250525E+05
 2.9639917E+02  8.8136931E+05
 2.9658051E+02  8.8038431E+05
 2.9676184E+02  8.7978931E+05
 2.9694318E+02  8.7864519E+05
 2.9712454E+02  8.7785538E+05
 2.9730588E+02  8.7726744E+05
 2.9748721E+02  8.7633694E+05
 2.9766855E+02  8.7561388E+05
 2.9784988E+02  8.7451806E+05
 2.9803122E+02  8.7337950E+05
 2.9821255E+02  8.7229794E+05
 2.9839392E+02  8.7150544E+05
 2.9857526E+02  8.7059606E+05
 2.9875659E+02  8.6956119E+05
 2.9893793E+02  8.6866894E+05
 2.9911926E+02  8.6786594E+05
 2.9930060E+02  8.6701962E+05
 2.9948193E+02  8.6603144E+05
 2.9966327E+02  8.6524175E+05
 2.9984464E+02  8.6456900E+05
 3.0002597E+02  8.6360650E+05
 3.0020731E+02  8.6277131E+05
 3.0038864E+02  8.6189562E+05
 3.0056998E+02  8.6111438E+05
 3.0075131E+02  8.6025856E+05
 3.0093265E+02  8.5929312E+05
 3.0111398E+02  8.5839525E+05
 3.0129535E+02  8.5737956E+05
 3.0147668E+02  8.5632825E+05
 3.0165802E+02  8.5525225E+05
 3.0183936E+02  8.5457844E+05
 3.0202069E+02  8.5306381E+05
 3.0220203E+02  8.5234912E+05
 3.0238336E+02  8.5151375E+05
 3.0256470E+02  8.5064900E+05
 3.0274606E+02  8.4980144E+05
 3.0292740E+02  8.4897956E+05
 3.0310873E+02  8.4777981E+05
 3.0329007E+02  8.4689569E+05
 3.0347141E+02  8.4606825E+05
 3.0365274E+02  8.4510288E+05
 3.0383408E+02  8.4433519E+05
 3.0401541E+02  8.4346925E+05
 3.0419678E+02  8.4226744E+05
 3.0437811E+02  8.4109994E+05
 3.0455945E+02  8.4029825E+05
 3.0474078E+02  8.3944494E+05
 3.0492212E+02  8.3885025E+05
 3.0510345E+02  8.3823288E+05
 3.0528479E+02  8.3707319E+05
 3.0546613E+02  8.3593038E+05
 3.0564749E+02  8.3502519E+05
 3.0582883E+02  8.3400250E+05
 3.0601016E+02  8.3359431E+05
 3.0619150E+02  8.3294900E+05
 3.0637283E+02  8.3205738E+05
 3.0655417E+02  8.3100250E+05
 3.0673550E+02  8.3008875E+05
 3.0691687E+02  8.2930350E+05
 3.0709821E+02  8.2860444E+05
 3.0727954E+02  8.2747675E+05
 3.0746088E+02  8.2632638E+05
 3.0764221E+02  8.2533138E+05
 3.0782355E+02  8.2414294E+05
 3.0800488E+02  8.2290931E+05
 3.0818622E+02  8.2220919E+05
 3.0836758E+02  8.2138100E+05
 3.0854892E+02  8.2117069E+05
 3.0873026E+02  8.2082362E+05
 3.0891159E+02  8.1987906E+05
 3.0909293E+02  8.1912169E+05
 3.0927426E+02  8.1875588E+05
 3.0945560E+02  8.1815406E+05
 3.0963693E+02  8.1732225E+05
 3.0981830E+02  8.1662738E+05
 3.0999963E+02  8.1607281E+05
 3.1018097E+02  8.1512831E+05
 3.1036230E+02  8.1414681E+05
 3.1054364E+02  8.1337394E+05
 3.1072498E+02  8.1277912E+05
 3.1090631E+02  8.1226631E+05
 3.1108765E+02  8.1161525E+05
 3.1126901E+02  8.1073256E+05
 3.1145035E+02  8.0961944E+05
 3.1163168E+02  8.0826394E+05
 3.1181302E+02  8.0777069E+05
 3.1199435E+02  8.0706256E+05
 3.1217569E+02  8.0610706E+05
 3.1235703E+02  8.0538906E+05
 3.1253836E+02  8.0468919E+05
 3.1271973E+02  8.0404050E+05
 3.1290106E+02  8.0302519E+05
 3.1308240E+02  8.0208038E+05
 3.1326373E+02  8.0103744E+05
 3.1344507E+02  8.0005788E+05
 3.1362640E+02  7.9935519E+05
 3.1380774E+02  7.9855362E+05
 3.1398911E+02  7.9769312E+05
 3.1417044E+02  7.9702494E+05
 3.1435178E+02  7.9632156E+05
 3.1453311E+02  7.9538631E+05
 3.1471445E+02  7.9453894E+05
 3.1489578E+02  7.9382381E+05
 3.1507712E+02  7.9315406E+05
 3.1525845E+02  7.9250838E+05
 3.1543982E+02  7.9166756E+05
 3.1562115E+02  7.9060869E+05
 3.1580249E+02  7.8987850E+05
 3.1598383E+02  7.8973038E+05
 3.1616516E+02  7.8926694E+05
 3.1634650E+02  7.9170288E+05
 3.1652783E+02  7.9619625E+05
 3.1670917E+02  7.9842419E+05
 3.1689053E+02  7.9992325E+05
 3.1707187E+02  8.0169138E+05
 3.1725320E+02  8.0349819E+05
 3.1743454E+02  8.0505794E+05
 3.1761588E+02  8.0604988E+05
 3.1779721E+02  8.0686731E+05
 3.1797855E+02  8.0759625E+05
 3.1815988E+02  8.0838012E+05
 3.1834125E+02  8.0872294E+05
 3.1852258E+02  8.0929550E+05
 3.1870392E+02  8.1006675E+05
 3.1888525E+02  8.1074438E+05
 3.1906659E+02  8.1149569E+05
 3.1924792E+02  8.1219238E+05
 3.1942926E+02  8.1283675E+05
 3.1961060E+02  8.1324969E+05
 3.1979196E+02  8.1357931E+05
 3.1997330E+02  8.1414700E+05
 3.2015463E+02  8.1447531E+05
 3.2033597E+02  8.1511525E+05
 3.2051730E+02  8.1557488E+05
 3.2069864E+02  8.1572538E+05
 3.2087997E+02  8.1587869E+05
 3.2106131E+02  8.1589038E+05
 3.2124268E+02  8.1565375E+05
 3.2142401E+02  8.1553994E+05
 3.2160535E+02  8.1550606E+05
 3.2178668E+02  8.1582688E+05
 3.2196802E+02  8.1580425E+05
 3.2214935E+02  8.1615456E+05
 3.2233069E+02  8.1625175E+05
 3.2251205E+02  8.1612044E+05
 3.2269339E+02  8.1613675E+05
 3.2287473E+02  8.1618688E+05
 3.2305606E+02  8.1599425E+05
 3.2323740E+02  8.1479125E+05
 3.2341873E+02  8.0984994E+05
 3.2360007E+02  8.0648488E+05
 3.2378140E+02  8.0410431E+05
 3.2396277E+02  8.0265875E+05
 3.2414410E+02  8.0102119E+05
 3.2432544E+02  7.9922938E+05
 3.2450677E+02  7.9782012E+05
 3.2468811E+02  7.9628806E+05
 3.2486945E+02  7.9473844E+05
 3.2505078E+02  7.9352969E+05
 3.2523212E+02  7.9240650E+05
 3.2541348E+02  7.9119650E+05
 3.2559482E+02  7.9026644E+05
 3.2577615E+02  7.8936300E+05
 3.2595749E+02  7.8814638E+05
 3.2613882E+02  7.8718706E+05
 3.2632016E+02  7.8614900E+05
 3.2650150E+02  7.8484806E+05
 3.2668283E+02  7.8407456E+05
 3.2686420E+02  7.8311225E+05
 3.2704553E+02  7.8204600E+05
 3.2722687E+02  7.8112700E+05
 3.2740820E+02  7.8016538E+05
 3.2758954E+02  7.7920994E+05
 3.2777087E+02  7.7841788E+05
 3.2795221E+02  7.7724400E+05
 3.2813354E+02  7.7634225E+05
 3.2831491E+02  7.7567712E+05
 3.2849625E+02  7.7449869E+05
 3.2867758E+02  7.7361681E+05
 3.2885892E+02  7.7278650E+05
 3.2904025E+02  7.7171869E+05
 3.2922159E+02  7.7082981E+05
 3.2940292E+02  7.7019881E+05
 3.2958429E+02  7.6906262E+05
 3.2976562E+02  7.6830431E+05
 3.2994696E+02  7.6746206E+05
 3.3012830E+02  7.6640081E+05
 3.3030963E+02  7.6581338E+05
 3.3049097E+02  7.6493038E+05
 3.3067230E+02  7.6382656E+05
 3.3085364E+02  7.6328569E+05
 3.3103500E+02  7.6227175E+05
 3.3121634E+02  7.6119462E+05
 3.3139767E+02  7.6044312E+05
 3.3157901E+02  7.5922900E+05
 3.3176035E+02  7.5857856E+05
 3.3194168E+02  7.5779550E+05
 3.3212302E+02  7.5665544E+05
 3.3230435E+02  7.5600538E+05
 3.3248572E+02  7.5495038E+05
 3.3266705E+02  7.5420494E+05
 3.3284839E+02  7.5346194E+05
 3.3302972E+02  7.5237800E+05
 3.3321106E+02  7.5163781E+05
 3.3339240E+02  7.5064769E+05
 3.3357373E+02  7.4987362E+05
 3.3375507E+02  7.4944988E+05
 3.3393643E+02  7.4837731E+05
 3.3411777E+02  7.4769412E+05
 3.3429910E+02  7.4678044E+05
 3.3448044E+02  7.4591825E+05
 3.3466177E+02  7.4545356E+05
 3.3484311E+02  7.4412306E+05
 3.3502444E+02  7.4365562E+05
 3.3520578E+02  7.4308144E+05
 3.3538715E+02  7.4220938E+05
 3.3556848E+02  7.4177575E+05
 3.3574982E+02  7.4055688E+05
 3.3593115E+02  7.3971938E+05
 3.3611249E+02  7.3898275E+05
 3.3629382E+02  7.3805181E+05
 3.3647516E+02  7.3793038E+05
 3.3665652E+02  7.3696888E+05
 3.3683786E+02  7.3586988E+05
 3.3701920E+02  7.3478688E+05
 3.3720053E+02  7.3396669E+05
 3.3738187E+02  7.3344894E+05
 3.3756320E+02  7.3216569E+05
 3.3774454E+02  7.3158569E+05
 3.3792587E+02  7.3076412E+05
 3.3810724E+02  7.2983288E+05
 3.3828857E+02  7.2914138E+05
 3.3846991E+02  7.2825775E+05
 3.3865125E+02  7.2757181E+05
 3.3883258E+02  7.2661075E+05
 3.3901392E+02  7.2601606E+05
 3.3919525E+02  7.2508225E+05
 3.3937659E+02  7.2448994E+05
 3.3955795E+02  7.2353456E+05
 3.3973929E+02  7.2263488E+05
 3.3992062E+02  7.2199262E+05
 3.4010196E+02  7.2096131E+05
 3.4028329E+02  7.2071488E+05
 3.4046463E+02  7.1971775E+05
 3.4064597E+02  7.1918181E+05
 3.4082730E+02  7.1826844E+05
 3.4100867E+02  7.1746694E+05
 3.4119000E+02  7.1681756E+05
 3.4137134E+02  7.1570662E+05
 3.4155267E+02  7.1501794E+05
 3.4173401E+02  7.1354894E+05
 3.4191534E+02  7.1321856E+05
 3.4209668E+02  7.1197988E+05
 3.4227802E+02  7.1141088E+05
 3.4245938E+02  7.1044669E+05
 3.4264072E+02  7.0976469E+05
 3.4282205E+02  7.0897588E+05
 3.4300339E+02  7.0788306E+05
 3.4318472E+02  7.0754425E+05
 3.4336606E+02  7.0663625E+05
 3.4354739E+02  7.0588488E+05
 3.4372873E+02  7.0521338E+05
 3.4391010E+02  7.0458062E+05
 3.4409143E+02  7.0338244E+05
 3.4427277E+02  7.0252081E+05
 3.4445410E+02  7.0168500E+05
 3.4463544E+02  7.0114738E+05
 3.4481677E+02  6.9996206E+05
 3.4499811E+02  6.9928669E+05
 3.4517947E+02  6.9833481E+05
 3.4536081E+02  6.9792769E+05
 3.4554214E+02  6.9680238E+05
 3.4572348E+02  6.9625494E+05
 3.4590482E+02  6.9511150E+05
 3.4608615E+02  6.9461812E+05
 3.4626749E+02  6.9355519E+05
 3.4644882E+02  6.9294881E+05
 3.4663019E+02  6.9185819E+05
 3.4681152E+02  6.9135912E+05
 3.4699286E+02  6.9043269E+05
 3.4717419E+02  6.8965981E+05
 3.4735553E+02  6.8875319E+05
 3.4753687E+02  6.8780806E+05
 3.4771820E+02  6.8709825E+05
 3.4789954E+02  6.8630925E+05
 3.4808090E+02  6.8559712E+05
 3.4826224E+02  6.8495656E+05
 3.4844357E+02  6.8428788E+05
 3.4862491E+02  6.8360950E+05
 3.4880624E+02  6.8273850E+05
 3.4898758E+02  6.8204400E+05
 3.4916891E+02  6.8095025E+05
 3.4935025E+02  6.8012869E+05
 3.4953162E+02  6.7921606E+05
 3.4971295E+02  6.7851769E+05
 3.4989429E+02  6.7740388E+05
 3.5007562E+02  6.7695775E+05
 3.5025696E+02  6.7574131E+05
 3.5043829E+02  6.7541812E+05
 3.5061963E+02  6.7425575E+05
 3.5080096E+02  6.7368719E+05
 3.5098233E+02  6.7276219E+05
 3.5116367E+02  6.7211062E+05
 3.5134500E+02  6.7108556E+05
 3.5152634E+02  6.7046919E+05
 3.5170767E+02  6.6967838E+05
 3.5188901E+02  6.6879112E+05
 3.5207034E+02  6.6820825E+05
 3.5225171E+02  6.6707006E+05
 3.5243304E+02  6.6646506E+05
 3.5261438E+02  6.6565131E+05
 3.5279572E+02  6.6517294E+05
 3.5297705E+02  6.6404544E+05
 3.5315839E+02  6.6363588E+05
 3.5333972E+02  6.6222300E+05
 3.5352106E+02  6.6196812E+05
 3.5370242E+02  6.6083512E+05
 3.5388376E+02  6.5993794E+05
 3.5406509E+02  6.5929162E+05
 3.5424643E+02  6.5845456E+05
 3.5442776E+02  6.5787944E+05
 3.5460910E+02  6.5686881E+05
 3.5479044E+02  6.5626662E+05
 3.5497177E+02  6.5543506E+05
 3.5515314E+02  6.5456544E+05
 3.5533447E+02  6.5410625E+05
 3.5551581E+02  6.5292669E+05
 3.5569714E+02  6.5242475E+05
 3.5587848E+02  6.5124112E+05
 3.5605981E+02  6.5073231E+05
 3.5624115E+02  6.4976912E+05
 3.5642249E+02  6.4892700E+05
 3.5660385E+02  6.4858869E+05
 3.5678519E+02  6.4745219E+05
 3.5696652E+02  6.4715119E+05
 3.5714786E+02  6.4615125E+05
 3.5732919E+02  6.4537256E+05
 3.5751053E+02  6.4463488E+05
 3.5769186E+02  6.4371400E+05
 3.5787320E+02  6.4302562E+05
 3.5805457E+02  6.4162762E+05
 3.5823590E+02  6.4103388E+05
 3.5841724E+02  6.4043275E+05
 3.5859857E+02  6.3983938E+05
 3.5877991E+02  6.3932544E+05
 3.5896124E+02  6.3860906E+05
 3.5914258E+02  6.3774244E+05
 3.5932391E+02  6.3723538E+05
 3.5950528E+02  6.3611175E+05
 3.5968661E+02  6.3548856E+05
 3.5986795E+02  6.3497069E+05
 3.6004929E+02  6.3389181E+05
 3.6023062E+02  6.3350888E+05
 3.6041196E+02  6.3227888E+05
 3.6059329E+02  6.3163431E+05
 3.6077466E+02  6.3111012E+05
 3.6095599E+02  6.2985962E+05
 3.6113733E+02  6.2968212E+05
 3.6131866E+02  6.2853712E+05
 3.6150000E+02  6.2763988E+05
 3.6168134E+02  6.2763000E+05
 3.6186267E+02  6.2622169E+05
 3.6204401E+02  6.2570025E+05
 3.6222537E+02  6.2505644E+05
 3.6240671E+02  6.2395712E+05
 3.6258804E+02  6.2316231E+05
 3.6276938E+02  6.2217850E+05
 3.6295071E+02  6.2136931E+05
 3.6313205E+02  6.2069194E+05
 3.6331339E+02  6.2039762E+05
 3.6349472E+02  6.1973700E+05
 3.6367609E+02  6.1915125E+05
 3.6385742E+02  6.1863169E+05
 3.6403876E+02  6.1750700E+05
 3.6422009E+02  6.1708794E+05
 3.6440143E+02  6.1652119E+05
 3.6458276E+02  6.1520000E+05
 3.6476410E+02  6.1505325E+05
 3.6494543E+02  6.1414225E+05
 3.6512680E+02  6.1282425E+05
 3.6530814E+02  6.1256519E+05
 3.6548947E+02  6.1146531E+05
 3.6567081E+02  6.1063606E+05
 3.6585214E+02  6.1062062E+05
 3.6603348E+02  6.0972144E+05
 3.6621481E+02  6.0873000E+05
 3.6639615E+02  6.0851106E+05
 3.6657751E+02  6.0751044E+05
 3.6675885E+02  6.0674131E+05
 3.6694019E+02  6.0616112E+05
 3.6712152E+02  6.0561912E+05
 3.6730286E+02  6.0465388E+05
 3.6748419E+02  6.0388062E+05
 3.6766553E+02  6.0336425E+05
 3.6784689E+02  6.0283119E+05
 3.6802823E+02  6.0172381E+05
 3.6820956E+02  6.0124750E+05
 3.6839090E+02  6.0070375E+05
 3.6857224E+02  5.9936469E+05
 3.6875357E+02  5.9866831E+05
 3.6893491E+02  5.9869131E+05
 3.6911624E+02  5.9773269E+05
 3.6929761E+02  5.9669506E+05
 3.6947894E+02  5.9685831E+05
 3.6966028E+02  5.9604144E+05
 3.6984161E+02  5.9490094E+05
 3.7002295E+02  5.9428562E+05
 3.7020428E+02  5.9419675E+05
 3.7038562E+02  5.9352919E+05
 3.7056696E+02  5.9249262E+05
 3.7074832E+02  5.9256312E+05
 3.7092966E+02  5.9223750E+05
 3.7111099E+02  5.9150031E+05
 3.7129233E+02  5.9187281E+05
